EXPLAIN
TAG	EISPOT
TITLE	LABEL	30Q_3	Test &Identifier
DATE	LABEL	7/24/2026	Date
TIME	LABEL	11:25:28	Time
NOTES	NOTES	6	&Notes...
	Potentiostatic EIS Data Test preformed on a 30Q battery.
	- 10 AC mV rms preformed on 7/20/26
	- 35E_9
	- Custom Battery Holder Tray. Wood Base w/ reference aligator clips connected to center of banana plug.
	- No Floating Ground
	- No Faraday Cage
PSTAT	PSTAT	REF3000-51199	Potentiostat
VDC	POTEN	0.00000E+000	T	DC &Voltage (V)
FREQINIT	QUANT	1.00000E+004	Initial Fre&q. (Hz)
FREQFINAL	QUANT	1.00000E-002	Final Fre&q. (Hz)
PTSPERDEC	QUANT	1.00000E+001	Points/&decade
VAC	QUANT	1.00000E+001	AC &Voltage (mV rms)
AREA	QUANT	2.54000E+000	&Area (cm^2)
CONDIT	TWOPARAM	F	1.50000E+001	0.00000E+000	Conditionin&g	Time(s)	E(V)
DELAY	TWOPARAM	T	1.80000E+003	0.00000E+000	Init. De&lay	Time(s)	Stab.(mV/s)
SPEED	SELECTOR	1	&Optimize for:
THD	SELECTOR	1	T&HD
DRIFTCOR	SELECTOR	1	&Drift Correction
ZGUESS	QUANT	1.00000E-001	E&stimated Z (ohms)
OCVCURVE	TABLE	718
	Pt	T	Vf	Vm	Ach	Over	Temp
	#	s	V vs. Ref.	V	V	bits	deg C
	0	2.50833	3.44220E+000	3.44220E+000	-2.26567E-004	...........	-327.56
	1	5.01667	3.44220E+000	3.44191E+000	-2.24447E-004	...........	-327.56
	2	7.525	3.44217E+000	3.44182E+000	-2.24040E-004	...........	-327.56
	3	10.0333	3.44209E+000	3.44177E+000	-2.25953E-004	...........	-327.56
	4	12.5417	3.44198E+000	3.44176E+000	-2.23847E-004	...........	-327.56
	5	15.05	3.44188E+000	3.44174E+000	-2.28747E-004	...........	-327.56
	6	17.5583	3.44181E+000	3.44173E+000	-2.26900E-004	...........	-327.56
	7	20.0667	3.44177E+000	3.44172E+000	-2.26213E-004	...........	-327.56
	8	22.575	3.44174E+000	3.44171E+000	-2.22493E-004	...........	-327.56
	9	25.0833	3.44173E+000	3.44171E+000	-2.23293E-004	...........	-327.56
	10	27.5917	3.44172E+000	3.44171E+000	-2.26680E-004	...........	-327.56
	11	30.1	3.44172E+000	3.44171E+000	-2.23287E-004	...........	-327.56
	12	32.6083	3.44171E+000	3.44170E+000	-2.24180E-004	...........	-327.56
	13	35.1167	3.44171E+000	3.44170E+000	-2.22033E-004	...........	-327.56
	14	37.625	3.44171E+000	3.44171E+000	-2.20347E-004	...........	-327.56
	15	40.1333	3.44171E+000	3.44171E+000	-2.25193E-004	...........	-327.56
	16	42.6417	3.44170E+000	3.44170E+000	-2.25760E-004	...........	-327.56
	17	45.15	3.44170E+000	3.44170E+000	-2.21000E-004	...........	-327.56
	18	47.6583	3.44170E+000	3.44170E+000	-2.25420E-004	...........	-327.56
	19	50.1667	3.44170E+000	3.44170E+000	-2.22813E-004	...........	-327.56
	20	52.675	3.44170E+000	3.44169E+000	-2.20673E-004	...........	-327.56
	21	55.1833	3.44170E+000	3.44170E+000	-2.21067E-004	...........	-327.56
	22	57.6917	3.44170E+000	3.44170E+000	-2.24413E-004	...........	-327.56
	23	60.2	3.44170E+000	3.44169E+000	-2.28220E-004	...........	-327.56
	24	62.7083	3.44170E+000	3.44168E+000	-2.29360E-004	...........	-327.56
	25	65.2167	3.44169E+000	3.44168E+000	-2.29887E-004	...........	-327.56
	26	67.725	3.44169E+000	3.44169E+000	-2.29480E-004	...........	-327.56
	27	70.2333	3.44169E+000	3.44168E+000	-2.25493E-004	...........	-327.56
	28	72.7417	3.44168E+000	3.44168E+000	-2.28240E-004	...........	-327.56
	29	75.25	3.44168E+000	3.44168E+000	-2.28140E-004	...........	-327.56
	30	77.7583	3.44168E+000	3.44167E+000	-2.32560E-004	...........	-327.56
	31	80.2667	3.44168E+000	3.44167E+000	-2.32147E-004	...........	-327.56
	32	82.775	3.44168E+000	3.44167E+000	-2.33353E-004	...........	-327.56
	33	85.2833	3.44167E+000	3.44166E+000	-2.34167E-004	...........	-327.56
	34	87.7917	3.44167E+000	3.44166E+000	-2.35773E-004	...........	-327.56
	35	90.3	3.44167E+000	3.44166E+000	-2.37260E-004	...........	-327.56
	36	92.8083	3.44166E+000	3.44166E+000	-2.35340E-004	...........	-327.56
	37	95.317	3.44166E+000	3.44165E+000	-2.37047E-004	...........	-327.56
	38	97.825	3.44166E+000	3.44164E+000	-2.38693E-004	...........	-327.56
	39	100.333	3.44166E+000	3.44164E+000	-2.36693E-004	...........	-327.56
	40	102.842	3.44165E+000	3.44164E+000	-2.43287E-004	...........	-327.56
	41	105.35	3.44165E+000	3.44164E+000	-2.42667E-004	...........	-327.56
	42	107.858	3.44164E+000	3.44164E+000	-2.40147E-004	...........	-327.56
	43	110.367	3.44164E+000	3.44164E+000	-2.39380E-004	...........	-327.56
	44	112.875	3.44164E+000	3.44163E+000	-2.43420E-004	...........	-327.56
	45	115.383	3.44164E+000	3.44163E+000	-2.47873E-004	...........	-327.56
	46	117.892	3.44164E+000	3.44162E+000	-2.46567E-004	...........	-327.56
	47	120.4	3.44163E+000	3.44162E+000	-2.49467E-004	...........	-327.56
	48	122.908	3.44163E+000	3.44162E+000	-2.48693E-004	...........	-327.56
	49	125.417	3.44163E+000	3.44162E+000	-2.51733E-004	...........	-327.56
	50	127.925	3.44162E+000	3.44163E+000	-2.53080E-004	...........	-327.56
	51	130.433	3.44162E+000	3.44162E+000	-2.55300E-004	...........	-327.56
	52	132.942	3.44162E+000	3.44162E+000	-2.58027E-004	...........	-327.56
	53	135.45	3.44162E+000	3.44161E+000	-2.58300E-004	...........	-327.56
	54	137.958	3.44162E+000	3.44162E+000	-2.55347E-004	...........	-327.56
	55	140.467	3.44162E+000	3.44161E+000	-2.63713E-004	...........	-327.56
	56	142.975	3.44162E+000	3.44161E+000	-2.61240E-004	...........	-327.56
	57	145.483	3.44162E+000	3.44162E+000	-2.60680E-004	...........	-327.56
	58	147.992	3.44161E+000	3.44161E+000	-2.64000E-004	...........	-327.56
	59	150.5	3.44161E+000	3.44161E+000	-2.70493E-004	...........	-327.56
	60	153.008	3.44161E+000	3.44161E+000	-2.70700E-004	...........	-327.56
	61	155.517	3.44161E+000	3.44161E+000	-2.71713E-004	...........	-327.56
	62	158.025	3.44161E+000	3.44161E+000	-2.75193E-004	...........	-327.56
	63	160.533	3.44161E+000	3.44161E+000	-2.76167E-004	...........	-327.56
	64	163.042	3.44161E+000	3.44161E+000	-2.74960E-004	...........	-327.56
	65	165.55	3.44161E+000	3.44160E+000	-2.76160E-004	...........	-327.56
	66	168.058	3.44161E+000	3.44161E+000	-2.79660E-004	...........	-327.56
	67	170.567	3.44161E+000	3.44160E+000	-2.82087E-004	...........	-327.56
	68	173.075	3.44161E+000	3.44160E+000	-2.83200E-004	...........	-327.56
	69	175.583	3.44161E+000	3.44160E+000	-2.80753E-004	...........	-327.56
	70	178.092	3.44160E+000	3.44160E+000	-2.76433E-004	...........	-327.56
	71	180.6	3.44160E+000	3.44160E+000	-2.79027E-004	...........	-327.56
	72	183.108	3.44160E+000	3.44161E+000	-2.83000E-004	...........	-327.56
	73	185.617	3.44160E+000	3.44160E+000	-2.86473E-004	...........	-327.56
	74	188.125	3.44160E+000	3.44160E+000	-2.90900E-004	...........	-327.56
	75	190.633	3.44160E+000	3.44160E+000	-2.82907E-004	...........	-327.56
	76	193.142	3.44160E+000	3.44160E+000	-2.83387E-004	...........	-327.56
	77	195.65	3.44160E+000	3.44162E+000	-2.87120E-004	...........	-327.56
	78	198.158	3.44160E+000	3.44162E+000	-2.84433E-004	...........	-327.56
	79	200.667	3.44161E+000	3.44161E+000	-2.92780E-004	...........	-327.56
	80	203.175	3.44161E+000	3.44161E+000	-2.87353E-004	...........	-327.56
	81	205.683	3.44161E+000	3.44161E+000	-2.91833E-004	...........	-327.56
	82	208.192	3.44161E+000	3.44160E+000	-2.96793E-004	...........	-327.56
	83	210.7	3.44161E+000	3.44161E+000	-2.97820E-004	...........	-327.56
	84	213.208	3.44161E+000	3.44161E+000	-2.90820E-004	...........	-327.56
	85	215.717	3.44161E+000	3.44161E+000	-2.92200E-004	...........	-327.56
	86	218.225	3.44161E+000	3.44159E+000	-2.93133E-004	...........	-327.56
	87	220.733	3.44161E+000	3.44159E+000	-2.98093E-004	...........	-327.56
	88	223.242	3.44160E+000	3.44159E+000	-2.99333E-004	...........	-327.56
	89	225.75	3.44160E+000	3.44159E+000	-2.95580E-004	...........	-327.56
	90	228.258	3.44160E+000	3.44159E+000	-2.95007E-004	...........	-327.56
	91	230.767	3.44159E+000	3.44159E+000	-2.94920E-004	...........	-327.56
	92	233.275	3.44159E+000	3.44159E+000	-2.89080E-004	...........	-327.56
	93	235.783	3.44159E+000	3.44159E+000	-2.91940E-004	...........	-327.56
	94	238.292	3.44159E+000	3.44158E+000	-2.97053E-004	...........	-327.56
	95	240.8	3.44159E+000	3.44158E+000	-2.93413E-004	...........	-327.56
	96	243.308	3.44159E+000	3.44158E+000	-2.93980E-004	...........	-327.56
	97	245.817	3.44159E+000	3.44159E+000	-2.94840E-004	...........	-327.56
	98	248.325	3.44158E+000	3.44158E+000	-2.96233E-004	...........	-327.56
	99	250.833	3.44158E+000	3.44158E+000	-2.93107E-004	...........	-327.56
	100	253.342	3.44158E+000	3.44158E+000	-2.91080E-004	...........	-327.56
	101	255.85	3.44158E+000	3.44158E+000	-2.89860E-004	...........	-327.56
	102	258.358	3.44158E+000	3.44158E+000	-2.90773E-004	...........	-327.56
	103	260.867	3.44158E+000	3.44158E+000	-2.94073E-004	...........	-327.56
	104	263.375	3.44158E+000	3.44157E+000	-2.91907E-004	...........	-327.56
	105	265.883	3.44158E+000	3.44157E+000	-2.92647E-004	...........	-327.56
	106	268.392	3.44157E+000	3.44157E+000	-2.92800E-004	...........	-327.56
	107	270.9	3.44157E+000	3.44157E+000	-2.87733E-004	...........	-327.56
	108	273.408	3.44157E+000	3.44157E+000	-2.91127E-004	...........	-327.56
	109	275.917	3.44157E+000	3.44157E+000	-2.92480E-004	...........	-327.56
	110	278.425	3.44157E+000	3.44157E+000	-2.94180E-004	...........	-327.56
	111	280.933	3.44157E+000	3.44156E+000	-2.92367E-004	...........	-327.56
	112	283.442	3.44157E+000	3.44156E+000	-3.00820E-004	...........	-327.56
	113	285.95	3.44157E+000	3.44155E+000	-2.96393E-004	...........	-327.56
	114	288.458	3.44156E+000	3.44156E+000	-2.94880E-004	...........	-327.56
	115	290.967	3.44156E+000	3.44156E+000	-2.91200E-004	...........	-327.56
	116	293.475	3.44156E+000	3.44155E+000	-2.85653E-004	...........	-327.56
	117	295.983	3.44156E+000	3.44155E+000	-2.87707E-004	...........	-327.56
	118	298.492	3.44156E+000	3.44155E+000	-2.90560E-004	...........	-327.56
	119	301	3.44155E+000	3.44154E+000	-2.85913E-004	...........	-327.56
	120	303.508	3.44155E+000	3.44154E+000	-2.83847E-004	...........	-327.56
	121	306.017	3.44155E+000	3.44154E+000	-2.80667E-004	...........	-327.56
	122	308.525	3.44154E+000	3.44153E+000	-2.81813E-004	...........	-327.56
	123	311.033	3.44154E+000	3.44153E+000	-2.79927E-004	...........	-327.56
	124	313.542	3.44154E+000	3.44153E+000	-2.84487E-004	...........	-327.56
	125	316.05	3.44153E+000	3.44152E+000	-2.85067E-004	...........	-327.56
	126	318.558	3.44153E+000	3.44152E+000	-2.84573E-004	...........	-327.56
	127	321.067	3.44153E+000	3.44151E+000	-2.82767E-004	...........	-327.56
	128	323.575	3.44152E+000	3.44151E+000	-2.87767E-004	...........	-327.56
	129	326.083	3.44152E+000	3.44150E+000	-2.87813E-004	...........	-327.56
	130	328.592	3.44151E+000	3.44151E+000	-2.83613E-004	...........	-327.56
	131	331.1	3.44151E+000	3.44151E+000	-2.83193E-004	...........	-327.56
	132	333.608	3.44151E+000	3.44149E+000	-2.84133E-004	...........	-327.56
	133	336.117	3.44151E+000	3.44149E+000	-2.80547E-004	...........	-327.56
	134	338.625	3.44150E+000	3.44148E+000	-2.78673E-004	...........	-327.56
	135	341.133	3.44150E+000	3.44148E+000	-2.85633E-004	...........	-327.56
	136	343.642	3.44149E+000	3.44148E+000	-2.83040E-004	...........	-327.56
	137	346.15	3.44149E+000	3.44146E+000	-2.86267E-004	...........	-327.56
	138	348.658	3.44148E+000	3.44147E+000	-2.83060E-004	...........	-327.56
	139	351.167	3.44148E+000	3.44146E+000	-2.81847E-004	...........	-327.56
	140	353.675	3.44147E+000	3.44146E+000	-2.81940E-004	...........	-327.56
	141	356.183	3.44147E+000	3.44145E+000	-2.77760E-004	...........	-327.56
	142	358.692	3.44146E+000	3.44145E+000	-2.76567E-004	...........	-327.56
	143	361.2	3.44146E+000	3.44145E+000	-2.74520E-004	...........	-327.56
	144	363.708	3.44145E+000	3.44143E+000	-2.74767E-004	...........	-327.56
	145	366.217	3.44145E+000	3.44143E+000	-2.81767E-004	...........	-327.56
	146	368.725	3.44144E+000	3.44143E+000	-2.77587E-004	...........	-327.56
	147	371.233	3.44144E+000	3.44142E+000	-2.76840E-004	...........	-327.56
	148	373.742	3.44143E+000	3.44143E+000	-2.78873E-004	...........	-327.56
	149	376.25	3.44143E+000	3.44141E+000	-2.82973E-004	...........	-327.56
	150	378.758	3.44142E+000	3.44141E+000	-2.84340E-004	...........	-327.56
	151	381.267	3.44142E+000	3.44140E+000	-2.80527E-004	...........	-327.56
	152	383.775	3.44142E+000	3.44139E+000	-2.76793E-004	...........	-327.56
	153	386.283	3.44141E+000	3.44140E+000	-2.80013E-004	...........	-327.56
	154	388.792	3.44140E+000	3.44139E+000	-2.82133E-004	...........	-327.56
	155	391.3	3.44140E+000	3.44138E+000	-2.79120E-004	...........	-327.56
	156	393.808	3.44140E+000	3.44138E+000	-2.81493E-004	...........	-327.56
	157	396.317	3.44139E+000	3.44137E+000	-2.82060E-004	...........	-327.56
	158	398.825	3.44139E+000	3.44137E+000	-2.79380E-004	...........	-327.56
	159	401.333	3.44138E+000	3.44136E+000	-2.90447E-004	...........	-327.56
	160	403.842	3.44138E+000	3.44136E+000	-2.84400E-004	...........	-327.56
	161	406.35	3.44137E+000	3.44136E+000	-2.85433E-004	...........	-327.56
	162	408.858	3.44137E+000	3.44136E+000	-2.86673E-004	...........	-327.56
	163	411.367	3.44136E+000	3.44135E+000	-2.87740E-004	...........	-327.56
	164	413.875	3.44136E+000	3.44135E+000	-2.88167E-004	...........	-327.56
	165	416.383	3.44135E+000	3.44133E+000	-2.84860E-004	...........	-327.56
	166	418.892	3.44135E+000	3.44134E+000	-2.81713E-004	...........	-327.56
	167	421.4	3.44135E+000	3.44134E+000	-2.87687E-004	...........	-327.56
	168	423.908	3.44134E+000	3.44133E+000	-2.86780E-004	...........	-327.56
	169	426.417	3.44134E+000	3.44133E+000	-2.85500E-004	...........	-327.56
	170	428.925	3.44134E+000	3.44133E+000	-2.84147E-004	...........	-327.56
	171	431.433	3.44133E+000	3.44132E+000	-2.87173E-004	...........	-327.56
	172	433.942	3.44133E+000	3.44133E+000	-2.84333E-004	...........	-327.56
	173	436.45	3.44133E+000	3.44133E+000	-2.83960E-004	...........	-327.56
	174	438.958	3.44133E+000	3.44132E+000	-2.84900E-004	...........	-327.56
	175	441.467	3.44132E+000	3.44133E+000	-2.88840E-004	...........	-327.56
	176	443.975	3.44132E+000	3.44134E+000	-2.96247E-004	...........	-327.56
	177	446.483	3.44133E+000	3.44131E+000	-2.87887E-004	...........	-327.56
	178	448.992	3.44133E+000	3.44132E+000	-2.84447E-004	...........	-327.56
	179	451.5	3.44132E+000	3.44132E+000	-2.88873E-004	...........	-327.56
	180	454.008	3.44132E+000	3.44132E+000	-2.81287E-004	...........	-327.56
	181	456.517	3.44132E+000	3.44133E+000	-2.84580E-004	...........	-327.56
	182	459.025	3.44132E+000	3.44132E+000	-2.81020E-004	...........	-327.56
	183	461.533	3.44132E+000	3.44131E+000	-2.86667E-004	...........	-327.56
	184	464.042	3.44132E+000	3.44132E+000	-2.88547E-004	...........	-327.56
	185	466.55	3.44132E+000	3.44133E+000	-2.93500E-004	...........	-327.56
	186	469.058	3.44132E+000	3.44132E+000	-2.90153E-004	...........	-327.56
	187	471.567	3.44132E+000	3.44131E+000	-2.91207E-004	...........	-327.56
	188	474.075	3.44132E+000	3.44131E+000	-2.92660E-004	...........	-327.56
	189	476.583	3.44132E+000	3.44131E+000	-2.93400E-004	...........	-327.56
	190	479.092	3.44131E+000	3.44130E+000	-2.94207E-004	...........	-327.56
	191	481.6	3.44131E+000	3.44131E+000	-2.96133E-004	...........	-327.56
	192	484.108	3.44131E+000	3.44130E+000	-2.96947E-004	...........	-327.56
	193	486.617	3.44131E+000	3.44130E+000	-3.00900E-004	...........	-327.56
	194	489.125	3.44131E+000	3.44131E+000	-3.04387E-004	...........	-327.56
	195	491.633	3.44130E+000	3.44132E+000	-3.04093E-004	...........	-327.56
	196	494.142	3.44131E+000	3.44132E+000	-3.03760E-004	...........	-327.56
	197	496.65	3.44131E+000	3.44131E+000	-3.04853E-004	...........	-327.56
	198	499.158	3.44131E+000	3.44131E+000	-3.06080E-004	...........	-327.56
	199	501.667	3.44131E+000	3.44132E+000	-3.05213E-004	...........	-327.56
	200	504.175	3.44131E+000	3.44132E+000	-3.04033E-004	...........	-327.56
	201	506.683	3.44131E+000	3.44132E+000	-3.03940E-004	...........	-327.56
	202	509.192	3.44132E+000	3.44132E+000	-3.07920E-004	...........	-327.56
	203	511.7	3.44132E+000	3.44133E+000	-3.11540E-004	...........	-327.56
	204	514.208	3.44132E+000	3.44132E+000	-3.13607E-004	...........	-327.56
	205	516.717	3.44132E+000	3.44132E+000	-3.14060E-004	...........	-327.56
	206	519.225	3.44132E+000	3.44132E+000	-3.11993E-004	...........	-327.56
	207	521.733	3.44132E+000	3.44134E+000	-3.14673E-004	...........	-327.56
	208	524.242	3.44132E+000	3.44134E+000	-3.19073E-004	...........	-327.56
	209	526.75	3.44133E+000	3.44133E+000	-3.12387E-004	...........	-327.56
	210	529.258	3.44133E+000	3.44132E+000	-3.10960E-004	...........	-327.56
	211	531.767	3.44133E+000	3.44133E+000	-3.09547E-004	...........	-327.56
	212	534.275	3.44133E+000	3.44134E+000	-3.08073E-004	...........	-327.56
	213	536.783	3.44133E+000	3.44133E+000	-3.18900E-004	...........	-327.56
	214	539.292	3.44133E+000	3.44134E+000	-3.12867E-004	...........	-327.56
	215	541.8	3.44133E+000	3.44132E+000	-3.13313E-004	...........	-327.56
	216	544.308	3.44133E+000	3.44133E+000	-3.10273E-004	...........	-327.56
	217	546.817	3.44133E+000	3.44133E+000	-3.15387E-004	...........	-327.56
	218	549.325	3.44133E+000	3.44133E+000	-3.14720E-004	...........	-327.56
	219	551.833	3.44133E+000	3.44134E+000	-3.18607E-004	...........	-327.56
	220	554.342	3.44133E+000	3.44133E+000	-3.16173E-004	...........	-327.56
	221	556.85	3.44133E+000	3.44134E+000	-3.15820E-004	...........	-327.56
	222	559.358	3.44133E+000	3.44134E+000	-3.16647E-004	...........	-327.56
	223	561.867	3.44134E+000	3.44136E+000	-3.18873E-004	...........	-327.56
	224	564.375	3.44134E+000	3.44135E+000	-3.18453E-004	...........	-327.56
	225	566.883	3.44134E+000	3.44135E+000	-3.18027E-004	...........	-327.56
	226	569.392	3.44135E+000	3.44136E+000	-3.15367E-004	...........	-327.56
	227	571.9	3.44135E+000	3.44136E+000	-3.14393E-004	...........	-327.56
	228	574.408	3.44135E+000	3.44137E+000	-3.08100E-004	...........	-327.56
	229	576.917	3.44136E+000	3.44137E+000	-3.17460E-004	...........	-327.56
	230	579.425	3.44136E+000	3.44135E+000	-3.21627E-004	...........	-327.56
	231	581.933	3.44136E+000	3.44136E+000	-3.19080E-004	...........	-327.56
	232	584.442	3.44136E+000	3.44136E+000	-3.10233E-004	...........	-327.56
	233	586.95	3.44136E+000	3.44136E+000	-3.19593E-004	...........	-327.56
	234	589.458	3.44136E+000	3.44136E+000	-3.20047E-004	...........	-327.56
	235	591.967	3.44136E+000	3.44137E+000	-3.19793E-004	...........	-327.56
	236	594.475	3.44136E+000	3.44136E+000	-3.14927E-004	...........	-327.56
	237	596.983	3.44136E+000	3.44139E+000	-3.15440E-004	...........	-327.56
	238	599.492	3.44137E+000	3.44138E+000	-3.18780E-004	...........	-327.56
	239	602	3.44137E+000	3.44139E+000	-3.14153E-004	...........	-327.56
	240	604.508	3.44138E+000	3.44138E+000	-3.13100E-004	...........	-327.56
	241	607.017	3.44138E+000	3.44140E+000	-3.13460E-004	...........	-327.56
	242	609.525	3.44139E+000	3.44140E+000	-3.18293E-004	...........	-327.56
	243	612.033	3.44139E+000	3.44140E+000	-3.16867E-004	...........	-327.56
	244	614.542	3.44139E+000	3.44141E+000	-3.12367E-004	...........	-327.56
	245	617.05	3.44140E+000	3.44141E+000	-3.11887E-004	...........	-327.56
	246	619.558	3.44140E+000	3.44141E+000	-3.18120E-004	...........	-327.56
	247	622.067	3.44140E+000	3.44141E+000	-3.20780E-004	...........	-327.56
	248	624.575	3.44141E+000	3.44141E+000	-3.20953E-004	...........	-327.56
	249	627.083	3.44141E+000	3.44141E+000	-3.13807E-004	...........	-327.56
	250	629.592	3.44141E+000	3.44141E+000	-3.18913E-004	...........	-327.56
	251	632.1	3.44141E+000	3.44141E+000	-3.20487E-004	...........	-327.56
	252	634.608	3.44141E+000	3.44141E+000	-3.13007E-004	...........	-327.56
	253	637.117	3.44141E+000	3.44141E+000	-3.09980E-004	...........	-327.56
	254	639.625	3.44141E+000	3.44142E+000	-3.14267E-004	...........	-327.56
	255	642.133	3.44141E+000	3.44142E+000	-3.16353E-004	...........	-327.56
	256	644.642	3.44141E+000	3.44141E+000	-3.08727E-004	...........	-327.56
	257	647.15	3.44141E+000	3.44142E+000	-3.16807E-004	...........	-327.56
	258	649.658	3.44142E+000	3.44142E+000	-3.19900E-004	...........	-327.56
	259	652.167	3.44142E+000	3.44141E+000	-3.12713E-004	...........	-327.56
	260	654.675	3.44142E+000	3.44140E+000	-3.10213E-004	...........	-327.56
	261	657.183	3.44141E+000	3.44139E+000	-3.07867E-004	...........	-327.56
	262	659.692	3.44141E+000	3.44139E+000	-3.09820E-004	...........	-327.56
	263	662.2	3.44140E+000	3.44139E+000	-3.19773E-004	...........	-327.56
	264	664.708	3.44139E+000	3.44138E+000	-3.17913E-004	...........	-327.56
	265	667.217	3.44139E+000	3.44138E+000	-3.14267E-004	...........	-327.56
	266	669.725	3.44139E+000	3.44139E+000	-3.14320E-004	...........	-327.56
	267	672.233	3.44139E+000	3.44139E+000	-3.14707E-004	...........	-327.56
	268	674.742	3.44138E+000	3.44138E+000	-3.10953E-004	...........	-327.56
	269	677.25	3.44138E+000	3.44138E+000	-3.11467E-004	...........	-327.56
	270	679.758	3.44138E+000	3.44138E+000	-3.09967E-004	...........	-327.56
	271	682.267	3.44138E+000	3.44139E+000	-3.07107E-004	...........	-327.56
	272	684.775	3.44138E+000	3.44138E+000	-3.14160E-004	...........	-327.56
	273	687.283	3.44138E+000	3.44138E+000	-3.11420E-004	...........	-327.56
	274	689.792	3.44138E+000	3.44138E+000	-3.11467E-004	...........	-327.56
	275	692.3	3.44138E+000	3.44138E+000	-3.09447E-004	...........	-327.56
	276	694.808	3.44138E+000	3.44138E+000	-3.15687E-004	...........	-327.56
	277	697.317	3.44138E+000	3.44137E+000	-3.15413E-004	...........	-327.56
	278	699.825	3.44138E+000	3.44137E+000	-3.12947E-004	...........	-327.56
	279	702.333	3.44138E+000	3.44137E+000	-3.20233E-004	...........	-327.56
	280	704.842	3.44138E+000	3.44137E+000	-3.11340E-004	...........	-327.56
	281	707.35	3.44138E+000	3.44137E+000	-3.16000E-004	...........	-327.56
	282	709.858	3.44137E+000	3.44138E+000	-3.09433E-004	...........	-327.56
	283	712.367	3.44137E+000	3.44137E+000	-3.07880E-004	...........	-327.56
	284	714.875	3.44137E+000	3.44137E+000	-3.07753E-004	...........	-327.56
	285	717.383	3.44137E+000	3.44137E+000	-3.13027E-004	...........	-327.56
	286	719.892	3.44137E+000	3.44137E+000	-3.13807E-004	...........	-327.56
	287	722.4	3.44137E+000	3.44137E+000	-3.07640E-004	...........	-327.56
	288	724.908	3.44137E+000	3.44137E+000	-3.08860E-004	...........	-327.56
	289	727.417	3.44137E+000	3.44138E+000	-3.09580E-004	...........	-327.56
	290	729.925	3.44137E+000	3.44137E+000	-3.08433E-004	...........	-327.56
	291	732.433	3.44137E+000	3.44136E+000	-3.11673E-004	...........	-327.56
	292	734.942	3.44137E+000	3.44137E+000	-3.09980E-004	...........	-327.56
	293	737.45	3.44137E+000	3.44137E+000	-3.08067E-004	...........	-327.56
	294	739.958	3.44137E+000	3.44136E+000	-3.09013E-004	...........	-327.56
	295	742.467	3.44137E+000	3.44136E+000	-3.02627E-004	...........	-327.56
	296	744.975	3.44136E+000	3.44136E+000	-3.05953E-004	...........	-327.56
	297	747.483	3.44136E+000	3.44136E+000	-3.03473E-004	...........	-327.56
	298	749.992	3.44136E+000	3.44137E+000	-3.04667E-004	...........	-327.56
	299	752.5	3.44136E+000	3.44136E+000	-3.06340E-004	...........	-327.56
	300	755.008	3.44137E+000	3.44135E+000	-3.05187E-004	...........	-327.56
	301	757.517	3.44136E+000	3.44137E+000	-2.99360E-004	...........	-327.56
	302	760.025	3.44136E+000	3.44135E+000	-3.03333E-004	...........	-327.56
	303	762.533	3.44136E+000	3.44136E+000	-3.10867E-004	...........	-327.56
	304	765.042	3.44136E+000	3.44135E+000	-3.02127E-004	...........	-327.56
	305	767.55	3.44136E+000	3.44134E+000	-3.09640E-004	...........	-327.56
	306	770.058	3.44135E+000	3.44134E+000	-3.16420E-004	...........	-327.56
	307	772.567	3.44135E+000	3.44134E+000	-3.09500E-004	...........	-327.56
	308	775.075	3.44134E+000	3.44134E+000	-3.08267E-004	...........	-327.56
	309	777.583	3.44134E+000	3.44134E+000	-3.07953E-004	...........	-327.56
	310	780.092	3.44134E+000	3.44134E+000	-3.11367E-004	...........	-327.56
	311	782.6	3.44134E+000	3.44133E+000	-3.09100E-004	...........	-327.56
	312	785.108	3.44134E+000	3.44134E+000	-3.05373E-004	...........	-327.56
	313	787.617	3.44134E+000	3.44133E+000	-3.09060E-004	...........	-327.56
	314	790.125	3.44134E+000	3.44135E+000	-3.08800E-004	...........	-327.56
	315	792.633	3.44134E+000	3.44134E+000	-3.10313E-004	...........	-327.56
	316	795.142	3.44134E+000	3.44134E+000	-3.09067E-004	...........	-327.56
	317	797.65	3.44134E+000	3.44133E+000	-3.11413E-004	...........	-327.56
	318	800.158	3.44134E+000	3.44133E+000	-3.11080E-004	...........	-327.56
	319	802.667	3.44134E+000	3.44132E+000	-3.03593E-004	...........	-327.56
	320	805.175	3.44133E+000	3.44133E+000	-3.06840E-004	...........	-327.56
	321	807.683	3.44133E+000	3.44133E+000	-3.08173E-004	...........	-327.56
	322	810.192	3.44133E+000	3.44132E+000	-3.09627E-004	...........	-327.56
	323	812.7	3.44133E+000	3.44132E+000	-3.05813E-004	...........	-327.56
	324	815.208	3.44132E+000	3.44132E+000	-3.03440E-004	...........	-327.56
	325	817.717	3.44132E+000	3.44132E+000	-3.05333E-004	...........	-327.56
	326	820.225	3.44132E+000	3.44131E+000	-3.11887E-004	...........	-327.56
	327	822.733	3.44132E+000	3.44131E+000	-3.06400E-004	...........	-327.56
	328	825.242	3.44132E+000	3.44132E+000	-3.11527E-004	...........	-327.56
	329	827.75	3.44132E+000	3.44132E+000	-3.13733E-004	...........	-327.56
	330	830.258	3.44132E+000	3.44132E+000	-3.09093E-004	...........	-327.56
	331	832.767	3.44132E+000	3.44132E+000	-3.09627E-004	...........	-327.56
	332	835.275	3.44132E+000	3.44131E+000	-3.04300E-004	...........	-327.56
	333	837.783	3.44132E+000	3.44132E+000	-3.08453E-004	...........	-327.56
	334	840.292	3.44132E+000	3.44131E+000	-3.07327E-004	...........	-327.56
	335	842.8	3.44132E+000	3.44130E+000	-3.14047E-004	...........	-327.56
	336	845.308	3.44132E+000	3.44131E+000	-3.07767E-004	...........	-327.56
	337	847.817	3.44131E+000	3.44131E+000	-3.06567E-004	...........	-327.56
	338	850.325	3.44131E+000	3.44132E+000	-3.04587E-004	...........	-327.56
	339	852.833	3.44131E+000	3.44131E+000	-3.07880E-004	...........	-327.56
	340	855.342	3.44131E+000	3.44131E+000	-3.13367E-004	...........	-327.56
	341	857.85	3.44131E+000	3.44131E+000	-3.08727E-004	...........	-327.56
	342	860.358	3.44131E+000	3.44130E+000	-3.12780E-004	...........	-327.56
	343	862.867	3.44131E+000	3.44130E+000	-3.12747E-004	...........	-327.56
	344	865.375	3.44131E+000	3.44130E+000	-3.10487E-004	...........	-327.56
	345	867.883	3.44131E+000	3.44130E+000	-3.14053E-004	...........	-327.56
	346	870.392	3.44130E+000	3.44130E+000	-3.14847E-004	...........	-327.56
	347	872.9	3.44130E+000	3.44130E+000	-3.11553E-004	...........	-327.56
	348	875.408	3.44130E+000	3.44130E+000	-3.17033E-004	...........	-327.56
	349	877.917	3.44130E+000	3.44129E+000	-3.15740E-004	...........	-327.56
	350	880.425	3.44130E+000	3.44129E+000	-3.17060E-004	...........	-327.56
	351	882.933	3.44130E+000	3.44129E+000	-3.14667E-004	...........	-327.56
	352	885.442	3.44129E+000	3.44129E+000	-3.19213E-004	...........	-327.56
	353	887.95	3.44129E+000	3.44130E+000	-3.11380E-004	...........	-327.56
	354	890.458	3.44129E+000	3.44130E+000	-3.14647E-004	...........	-327.56
	355	892.967	3.44129E+000	3.44128E+000	-3.14380E-004	...........	-327.56
	356	895.475	3.44129E+000	3.44127E+000	-3.16860E-004	...........	-327.56
	357	897.983	3.44129E+000	3.44128E+000	-3.14060E-004	...........	-327.56
	358	900.492	3.44128E+000	3.44130E+000	-3.17007E-004	...........	-327.56
	359	903	3.44128E+000	3.44129E+000	-3.20087E-004	...........	-327.56
	360	905.508	3.44128E+000	3.44128E+000	-3.15313E-004	...........	-327.56
	361	908.017	3.44129E+000	3.44132E+000	-3.20327E-004	...........	-327.56
	362	910.525	3.44129E+000	3.44132E+000	-3.15553E-004	...........	-327.56
	363	913.033	3.44130E+000	3.44133E+000	-3.11380E-004	...........	-327.56
	364	915.542	3.44131E+000	3.44129E+000	-3.17347E-004	...........	-327.56
	365	918.05	3.44131E+000	3.44129E+000	-3.19133E-004	...........	-327.56
	366	920.558	3.44131E+000	3.44128E+000	-3.17667E-004	...........	-327.56
	367	923.067	3.44130E+000	3.44129E+000	-3.17493E-004	...........	-327.56
	368	925.575	3.44129E+000	3.44128E+000	-3.20027E-004	...........	-327.56
	369	928.083	3.44129E+000	3.44129E+000	-3.16547E-004	...........	-327.56
	370	930.592	3.44129E+000	3.44128E+000	-3.14433E-004	...........	-327.56
	371	933.1	3.44128E+000	3.44128E+000	-3.15553E-004	...........	-327.56
	372	935.608	3.44128E+000	3.44129E+000	-3.23680E-004	...........	-327.56
	373	938.117	3.44128E+000	3.44129E+000	-3.19460E-004	...........	-327.56
	374	940.625	3.44128E+000	3.44128E+000	-3.20360E-004	...........	-327.56
	375	943.133	3.44129E+000	3.44129E+000	-3.16547E-004	...........	-327.56
	376	945.642	3.44129E+000	3.44130E+000	-3.26633E-004	...........	-327.56
	377	948.15	3.44129E+000	3.44130E+000	-3.21700E-004	...........	-327.56
	378	950.66	3.44129E+000	3.44129E+000	-3.18487E-004	...........	-327.56
	379	953.17	3.44129E+000	3.44129E+000	-3.21380E-004	...........	-327.56
	380	955.68	3.44129E+000	3.44128E+000	-3.20687E-004	...........	-327.56
	381	958.18	3.44129E+000	3.44129E+000	-3.21573E-004	...........	-327.56
	382	960.69	3.44129E+000	3.44128E+000	-3.19320E-004	...........	-327.56
	383	963.2	3.44129E+000	3.44129E+000	-3.22887E-004	...........	-327.56
	384	965.71	3.44129E+000	3.44129E+000	-3.21480E-004	...........	-327.56
	385	968.22	3.44129E+000	3.44129E+000	-3.17473E-004	...........	-327.56
	386	970.73	3.44129E+000	3.44128E+000	-3.20753E-004	...........	-327.56
	387	973.23	3.44129E+000	3.44128E+000	-3.17747E-004	...........	-327.56
	388	975.74	3.44129E+000	3.44128E+000	-3.18393E-004	...........	-327.56
	389	978.25	3.44128E+000	3.44128E+000	-3.21100E-004	...........	-327.56
	390	980.76	3.44128E+000	3.44128E+000	-3.19180E-004	...........	-327.56
	391	983.27	3.44128E+000	3.44128E+000	-3.21760E-004	...........	-327.56
	392	985.78	3.44128E+000	3.44127E+000	-3.19427E-004	...........	-327.56
	393	988.28	3.44128E+000	3.44127E+000	-3.24773E-004	...........	-327.56
	394	990.79	3.44127E+000	3.44127E+000	-3.27200E-004	...........	-327.56
	395	993.3	3.44127E+000	3.44127E+000	-3.25127E-004	...........	-327.56
	396	995.81	3.44127E+000	3.44128E+000	-3.29253E-004	...........	-327.56
	397	998.32	3.44127E+000	3.44127E+000	-3.23433E-004	...........	-327.56
	398	1000.83	3.44127E+000	3.44127E+000	-3.23360E-004	...........	-327.56
	399	1003.33	3.44127E+000	3.44127E+000	-3.25100E-004	...........	-327.56
	400	1005.84	3.44127E+000	3.44127E+000	-3.24740E-004	...........	-327.56
	401	1008.35	3.44127E+000	3.44125E+000	-3.27107E-004	...........	-327.56
	402	1010.86	3.44127E+000	3.44127E+000	-3.26687E-004	...........	-327.56
	403	1013.37	3.44127E+000	3.44127E+000	-3.23380E-004	...........	-327.56
	404	1015.88	3.44127E+000	3.44127E+000	-3.25260E-004	...........	-327.56
	405	1018.38	3.44127E+000	3.44127E+000	-3.21200E-004	...........	-327.56
	406	1020.89	3.44127E+000	3.44127E+000	-3.17727E-004	...........	-327.56
	407	1023.4	3.44127E+000	3.44127E+000	-3.26367E-004	...........	-327.56
	408	1025.91	3.44127E+000	3.44127E+000	-3.30487E-004	...........	-327.56
	409	1028.42	3.44127E+000	3.44126E+000	-3.22487E-004	...........	-327.56
	410	1030.93	3.44127E+000	3.44127E+000	-3.19840E-004	...........	-327.56
	411	1033.43	3.44127E+000	3.44126E+000	-3.21860E-004	...........	-327.56
	412	1035.94	3.44127E+000	3.44126E+000	-3.27853E-004	...........	-327.56
	413	1038.45	3.44127E+000	3.44126E+000	-3.22207E-004	...........	-327.56
	414	1040.96	3.44126E+000	3.44126E+000	-3.20020E-004	...........	-327.56
	415	1043.47	3.44126E+000	3.44128E+000	-3.21633E-004	...........	-327.56
	416	1045.98	3.44126E+000	3.44127E+000	-3.20533E-004	...........	-327.56
	417	1048.48	3.44127E+000	3.44127E+000	-3.19327E-004	...........	-327.56
	418	1050.99	3.44127E+000	3.44126E+000	-3.23793E-004	...........	-327.56
	419	1053.5	3.44127E+000	3.44126E+000	-3.23927E-004	...........	-327.56
	420	1056.01	3.44127E+000	3.44126E+000	-3.22660E-004	...........	-327.56
	421	1058.52	3.44126E+000	3.44127E+000	-3.27740E-004	...........	-327.56
	422	1061.03	3.44126E+000	3.44127E+000	-3.25713E-004	...........	-327.56
	423	1063.53	3.44126E+000	3.44126E+000	-3.27720E-004	...........	-327.56
	424	1066.04	3.44127E+000	3.44126E+000	-3.28427E-004	...........	-327.56
	425	1068.55	3.44127E+000	3.44126E+000	-3.28507E-004	...........	-327.56
	426	1071.06	3.44127E+000	3.44124E+000	-3.32353E-004	...........	-327.56
	427	1073.57	3.44126E+000	3.44124E+000	-3.28467E-004	...........	-327.56
	428	1076.08	3.44126E+000	3.44126E+000	-3.28147E-004	...........	-327.56
	429	1078.58	3.44125E+000	3.44124E+000	-3.26227E-004	...........	-327.56
	430	1081.09	3.44125E+000	3.44125E+000	-3.32127E-004	...........	-327.56
	431	1083.6	3.44125E+000	3.44126E+000	-3.31287E-004	...........	-327.56
	432	1086.11	3.44125E+000	3.44125E+000	-3.28100E-004	...........	-327.56
	433	1088.62	3.44125E+000	3.44125E+000	-3.33907E-004	...........	-327.56
	434	1091.13	3.44125E+000	3.44126E+000	-3.30307E-004	...........	-327.56
	435	1093.63	3.44125E+000	3.44126E+000	-3.27240E-004	...........	-327.56
	436	1096.14	3.44125E+000	3.44126E+000	-3.32873E-004	...........	-327.56
	437	1098.65	3.44126E+000	3.44127E+000	-3.34967E-004	...........	-327.56
	438	1101.16	3.44126E+000	3.44126E+000	-3.33293E-004	...........	-327.56
	439	1103.67	3.44126E+000	3.44125E+000	-3.33100E-004	...........	-327.56
	440	1106.18	3.44126E+000	3.44125E+000	-3.31193E-004	...........	-327.56
	441	1108.68	3.44126E+000	3.44124E+000	-3.37547E-004	...........	-327.56
	442	1111.19	3.44125E+000	3.44125E+000	-3.37033E-004	...........	-327.56
	443	1113.7	3.44125E+000	3.44125E+000	-3.37427E-004	...........	-327.56
	444	1116.21	3.44125E+000	3.44125E+000	-3.36647E-004	...........	-327.56
	445	1118.72	3.44125E+000	3.44125E+000	-3.33927E-004	...........	-327.56
	446	1121.23	3.44125E+000	3.44125E+000	-3.33407E-004	...........	-327.56
	447	1123.73	3.44125E+000	3.44125E+000	-3.29613E-004	...........	-327.56
	448	1126.24	3.44125E+000	3.44124E+000	-3.36227E-004	...........	-327.56
	449	1128.75	3.44125E+000	3.44125E+000	-3.39040E-004	...........	-327.56
	450	1131.26	3.44125E+000	3.44125E+000	-3.40107E-004	...........	-327.56
	451	1133.77	3.44125E+000	3.44125E+000	-3.37160E-004	...........	-327.56
	452	1136.28	3.44125E+000	3.44125E+000	-3.39453E-004	...........	-327.56
	453	1138.78	3.44125E+000	3.44125E+000	-3.41340E-004	...........	-327.56
	454	1141.29	3.44125E+000	3.44123E+000	-3.46967E-004	...........	-327.56
	455	1143.8	3.44125E+000	3.44124E+000	-3.39293E-004	...........	-327.56
	456	1146.31	3.44125E+000	3.44125E+000	-3.43900E-004	...........	-327.56
	457	1148.82	3.44124E+000	3.44124E+000	-3.38527E-004	...........	-327.56
	458	1151.33	3.44124E+000	3.44122E+000	-3.41380E-004	...........	-327.56
	459	1153.83	3.44124E+000	3.44124E+000	-3.38193E-004	...........	-327.56
	460	1156.34	3.44124E+000	3.44125E+000	-3.40113E-004	...........	-327.56
	461	1158.85	3.44124E+000	3.44125E+000	-3.38627E-004	...........	-327.56
	462	1161.36	3.44124E+000	3.44124E+000	-3.41920E-004	...........	-327.56
	463	1163.87	3.44124E+000	3.44124E+000	-3.37493E-004	...........	-327.56
	464	1166.38	3.44124E+000	3.44124E+000	-3.43660E-004	...........	-327.56
	465	1168.88	3.44124E+000	3.44125E+000	-3.43693E-004	...........	-327.56
	466	1171.39	3.44124E+000	3.44125E+000	-3.37100E-004	...........	-327.56
	467	1173.9	3.44124E+000	3.44125E+000	-3.46767E-004	...........	-327.56
	468	1176.41	3.44125E+000	3.44123E+000	-3.44480E-004	...........	-327.56
	469	1178.92	3.44125E+000	3.44123E+000	-3.44813E-004	...........	-327.56
	470	1181.43	3.44124E+000	3.44124E+000	-3.44820E-004	...........	-327.56
	471	1183.93	3.44124E+000	3.44125E+000	-3.45233E-004	...........	-327.56
	472	1186.44	3.44124E+000	3.44126E+000	-3.41780E-004	...........	-327.56
	473	1188.95	3.44124E+000	3.44125E+000	-3.44893E-004	...........	-327.56
	474	1191.46	3.44125E+000	3.44125E+000	-3.40767E-004	...........	-327.56
	475	1193.97	3.44125E+000	3.44125E+000	-3.45440E-004	...........	-327.56
	476	1196.48	3.44125E+000	3.44124E+000	-3.50793E-004	...........	-327.56
	477	1198.98	3.44125E+000	3.44125E+000	-3.48667E-004	...........	-327.56
	478	1201.49	3.44125E+000	3.44124E+000	-3.47013E-004	...........	-327.56
	479	1204	3.44125E+000	3.44123E+000	-3.44067E-004	...........	-327.56
	480	1206.51	3.44124E+000	3.44123E+000	-3.45993E-004	...........	-327.56
	481	1209.02	3.44124E+000	3.44125E+000	-3.42767E-004	...........	-327.56
	482	1211.53	3.44124E+000	3.44124E+000	-3.45660E-004	...........	-327.56
	483	1214.03	3.44124E+000	3.44123E+000	-3.41460E-004	...........	-327.56
	484	1216.54	3.44124E+000	3.44123E+000	-3.42147E-004	...........	-327.56
	485	1219.05	3.44124E+000	3.44124E+000	-3.45027E-004	...........	-327.56
	486	1221.56	3.44123E+000	3.44123E+000	-3.44720E-004	...........	-327.56
	487	1224.07	3.44123E+000	3.44123E+000	-3.49513E-004	...........	-327.56
	488	1226.58	3.44123E+000	3.44123E+000	-3.44013E-004	...........	-327.56
	489	1229.08	3.44123E+000	3.44122E+000	-3.43520E-004	...........	-327.56
	490	1231.59	3.44123E+000	3.44123E+000	-3.48807E-004	...........	-327.56
	491	1234.1	3.44123E+000	3.44123E+000	-3.48673E-004	...........	-327.56
	492	1236.61	3.44123E+000	3.44122E+000	-3.46300E-004	...........	-327.56
	493	1239.12	3.44123E+000	3.44122E+000	-3.43053E-004	...........	-327.56
	494	1241.63	3.44123E+000	3.44123E+000	-3.45420E-004	...........	-327.56
	495	1244.13	3.44123E+000	3.44123E+000	-3.47800E-004	...........	-327.56
	496	1246.64	3.44123E+000	3.44122E+000	-3.51793E-004	...........	-327.56
	497	1249.15	3.44123E+000	3.44122E+000	-3.54820E-004	...........	-327.56
	498	1251.66	3.44122E+000	3.44121E+000	-3.52687E-004	...........	-327.56
	499	1254.17	3.44122E+000	3.44123E+000	-3.54320E-004	...........	-327.56
	500	1256.68	3.44122E+000	3.44122E+000	-3.51293E-004	...........	-327.56
	501	1259.18	3.44122E+000	3.44122E+000	-3.50313E-004	...........	-327.56
	502	1261.69	3.44122E+000	3.44123E+000	-3.55853E-004	...........	-327.56
	503	1264.2	3.44122E+000	3.44122E+000	-3.54480E-004	...........	-327.56
	504	1266.71	3.44122E+000	3.44121E+000	-3.52340E-004	...........	-327.56
	505	1269.22	3.44122E+000	3.44121E+000	-3.50147E-004	...........	-327.56
	506	1271.73	3.44122E+000	3.44122E+000	-3.50420E-004	...........	-327.56
	507	1274.23	3.44122E+000	3.44120E+000	-3.51547E-004	...........	-327.56
	508	1276.74	3.44121E+000	3.44121E+000	-3.48953E-004	...........	-327.56
	509	1279.25	3.44121E+000	3.44120E+000	-3.49967E-004	...........	-327.56
	510	1281.76	3.44121E+000	3.44121E+000	-3.47213E-004	...........	-327.56
	511	1284.27	3.44121E+000	3.44121E+000	-3.52560E-004	...........	-327.56
	512	1286.78	3.44121E+000	3.44120E+000	-3.47353E-004	...........	-327.56
	513	1289.28	3.44121E+000	3.44119E+000	-3.56560E-004	...........	-327.56
	514	1291.79	3.44121E+000	3.44122E+000	-3.51607E-004	...........	-327.56
	515	1294.3	3.44121E+000	3.44121E+000	-3.48967E-004	...........	-327.56
	516	1296.81	3.44121E+000	3.44121E+000	-3.54973E-004	...........	-327.56
	517	1299.32	3.44121E+000	3.44121E+000	-3.50847E-004	...........	-327.56
	518	1301.83	3.44121E+000	3.44122E+000	-3.46400E-004	...........	-327.56
	519	1304.33	3.44121E+000	3.44121E+000	-3.41487E-004	...........	-327.56
	520	1306.84	3.44121E+000	3.44121E+000	-3.46140E-004	...........	-327.56
	521	1309.35	3.44121E+000	3.44119E+000	-3.49880E-004	...........	-327.56
	522	1311.86	3.44121E+000	3.44120E+000	-3.50613E-004	...........	-327.56
	523	1314.37	3.44120E+000	3.44121E+000	-3.51780E-004	...........	-327.56
	524	1316.88	3.44120E+000	3.44120E+000	-3.53827E-004	...........	-327.56
	525	1319.38	3.44120E+000	3.44119E+000	-3.53293E-004	...........	-327.56
	526	1321.89	3.44120E+000	3.44119E+000	-3.52187E-004	...........	-327.56
	527	1324.4	3.44120E+000	3.44118E+000	-3.50600E-004	...........	-327.56
	528	1326.91	3.44120E+000	3.44118E+000	-3.43820E-004	...........	-327.56
	529	1329.42	3.44119E+000	3.44119E+000	-3.47920E-004	...........	-327.56
	530	1331.93	3.44119E+000	3.44120E+000	-3.48853E-004	...........	-327.56
	531	1334.43	3.44119E+000	3.44120E+000	-3.57520E-004	...........	-327.56
	532	1336.94	3.44119E+000	3.44118E+000	-3.49027E-004	...........	-327.56
	533	1339.45	3.44119E+000	3.44119E+000	-3.47920E-004	...........	-327.56
	534	1341.96	3.44119E+000	3.44119E+000	-3.50300E-004	...........	-327.56
	535	1344.47	3.44119E+000	3.44119E+000	-3.48307E-004	...........	-327.56
	536	1346.98	3.44119E+000	3.44119E+000	-3.54473E-004	...........	-327.56
	537	1349.48	3.44119E+000	3.44118E+000	-3.53073E-004	...........	-327.56
	538	1351.99	3.44119E+000	3.44120E+000	-3.54353E-004	...........	-327.56
	539	1354.5	3.44119E+000	3.44119E+000	-3.47020E-004	...........	-327.56
	540	1357.01	3.44119E+000	3.44119E+000	-3.46393E-004	...........	-327.56
	541	1359.52	3.44119E+000	3.44119E+000	-3.55607E-004	...........	-327.56
	542	1362.03	3.44119E+000	3.44119E+000	-3.56907E-004	...........	-327.56
	543	1364.53	3.44119E+000	3.44120E+000	-3.56807E-004	...........	-327.56
	544	1367.04	3.44119E+000	3.44118E+000	-3.49613E-004	...........	-327.56
	545	1369.55	3.44119E+000	3.44119E+000	-3.54967E-004	...........	-327.56
	546	1372.06	3.44119E+000	3.44119E+000	-3.57267E-004	...........	-327.56
	547	1374.57	3.44119E+000	3.44118E+000	-3.46960E-004	...........	-327.56
	548	1377.08	3.44119E+000	3.44119E+000	-3.51047E-004	...........	-327.56
	549	1379.58	3.44119E+000	3.44118E+000	-3.50320E-004	...........	-327.56
	550	1382.09	3.44119E+000	3.44118E+000	-3.49153E-004	...........	-327.56
	551	1384.6	3.44119E+000	3.44118E+000	-3.46733E-004	...........	-327.56
	552	1387.11	3.44118E+000	3.44120E+000	-3.46000E-004	...........	-327.56
	553	1389.62	3.44118E+000	3.44119E+000	-3.50967E-004	...........	-327.56
	554	1392.13	3.44119E+000	3.44120E+000	-3.54500E-004	...........	-327.56
	555	1394.63	3.44119E+000	3.44118E+000	-3.55000E-004	...........	-327.56
	556	1397.14	3.44119E+000	3.44117E+000	-3.57047E-004	...........	-327.56
	557	1399.65	3.44119E+000	3.44119E+000	-3.52220E-004	...........	-327.56
	558	1402.16	3.44119E+000	3.44118E+000	-3.52220E-004	...........	-327.56
	559	1404.67	3.44118E+000	3.44119E+000	-3.58600E-004	...........	-327.56
	560	1407.18	3.44118E+000	3.44117E+000	-3.53413E-004	...........	-327.56
	561	1409.68	3.44118E+000	3.44117E+000	-3.53207E-004	...........	-327.56
	562	1412.19	3.44118E+000	3.44119E+000	-3.54280E-004	...........	-327.56
	563	1414.7	3.44118E+000	3.44119E+000	-3.50500E-004	...........	-327.56
	564	1417.21	3.44118E+000	3.44119E+000	-3.55747E-004	...........	-327.56
	565	1419.72	3.44118E+000	3.44119E+000	-3.53153E-004	...........	-327.56
	566	1422.23	3.44119E+000	3.44120E+000	-3.58087E-004	...........	-327.56
	567	1424.73	3.44119E+000	3.44119E+000	-3.57033E-004	...........	-327.56
	568	1427.24	3.44119E+000	3.44119E+000	-3.60280E-004	...........	-327.56
	569	1429.75	3.44119E+000	3.44119E+000	-3.59247E-004	...........	-327.56
	570	1432.26	3.44119E+000	3.44119E+000	-3.61407E-004	...........	-327.56
	571	1434.77	3.44119E+000	3.44119E+000	-3.61320E-004	...........	-327.56
	572	1437.28	3.44119E+000	3.44119E+000	-3.60860E-004	...........	-327.56
	573	1439.78	3.44119E+000	3.44119E+000	-3.60747E-004	...........	-327.56
	574	1442.29	3.44119E+000	3.44119E+000	-3.60413E-004	...........	-327.56
	575	1444.8	3.44119E+000	3.44118E+000	-3.61180E-004	...........	-327.56
	576	1447.31	3.44119E+000	3.44118E+000	-3.59340E-004	...........	-327.56
	577	1449.82	3.44119E+000	3.44119E+000	-3.57300E-004	...........	-327.56
	578	1452.33	3.44119E+000	3.44119E+000	-3.60267E-004	...........	-327.56
	579	1454.83	3.44119E+000	3.44119E+000	-3.56900E-004	...........	-327.56
	580	1457.34	3.44119E+000	3.44119E+000	-3.61260E-004	...........	-327.56
	581	1459.85	3.44119E+000	3.44116E+000	-3.67173E-004	...........	-327.56
	582	1462.36	3.44119E+000	3.44118E+000	-3.71920E-004	...........	-327.56
	583	1464.87	3.44118E+000	3.44118E+000	-3.66480E-004	...........	-327.56
	584	1467.38	3.44118E+000	3.44117E+000	-3.56787E-004	...........	-327.56
	585	1469.88	3.44118E+000	3.44118E+000	-3.60033E-004	...........	-327.56
	586	1472.39	3.44118E+000	3.44118E+000	-3.61900E-004	...........	-327.56
	587	1474.9	3.44118E+000	3.44118E+000	-3.56567E-004	...........	-327.56
	588	1477.41	3.44118E+000	3.44118E+000	-3.61980E-004	...........	-327.56
	589	1479.92	3.44118E+000	3.44116E+000	-3.60413E-004	...........	-327.56
	590	1482.43	3.44118E+000	3.44117E+000	-3.60687E-004	...........	-327.56
	591	1484.93	3.44117E+000	3.44118E+000	-3.60953E-004	...........	-327.56
	592	1487.44	3.44117E+000	3.44118E+000	-3.61140E-004	...........	-327.56
	593	1489.95	3.44117E+000	3.44119E+000	-3.57373E-004	...........	-327.56
	594	1492.46	3.44117E+000	3.44119E+000	-3.60060E-004	...........	-327.56
	595	1494.97	3.44118E+000	3.44117E+000	-3.62140E-004	...........	-327.56
	596	1497.48	3.44118E+000	3.44118E+000	-3.61140E-004	...........	-327.56
	597	1499.98	3.44118E+000	3.44118E+000	-3.61420E-004	...........	-327.56
	598	1502.49	3.44118E+000	3.44119E+000	-3.63487E-004	...........	-327.56
	599	1505	3.44118E+000	3.44116E+000	-3.64060E-004	...........	-327.56
	600	1507.51	3.44118E+000	3.44117E+000	-3.64353E-004	...........	-327.56
	601	1510.02	3.44118E+000	3.44117E+000	-3.66093E-004	...........	-327.56
	602	1512.53	3.44117E+000	3.44116E+000	-3.60140E-004	...........	-327.56
	603	1515.03	3.44117E+000	3.44118E+000	-3.62627E-004	...........	-327.56
	604	1517.54	3.44117E+000	3.44118E+000	-3.61620E-004	...........	-327.56
	605	1520.05	3.44117E+000	3.44118E+000	-3.61960E-004	...........	-327.56
	606	1522.56	3.44117E+000	3.44117E+000	-3.62153E-004	...........	-327.56
	607	1525.07	3.44117E+000	3.44116E+000	-3.63427E-004	...........	-327.56
	608	1527.58	3.44117E+000	3.44118E+000	-3.58227E-004	...........	-327.56
	609	1530.08	3.44117E+000	3.44118E+000	-3.60707E-004	...........	-327.56
	610	1532.59	3.44117E+000	3.44117E+000	-3.63587E-004	...........	-327.56
	611	1535.1	3.44117E+000	3.44116E+000	-3.58060E-004	...........	-327.56
	612	1537.61	3.44117E+000	3.44116E+000	-3.58093E-004	...........	-327.56
	613	1540.12	3.44117E+000	3.44116E+000	-3.53853E-004	...........	-327.56
	614	1542.63	3.44117E+000	3.44115E+000	-3.60840E-004	...........	-327.56
	615	1545.13	3.44116E+000	3.44116E+000	-3.57720E-004	...........	-327.56
	616	1547.64	3.44116E+000	3.44116E+000	-3.55393E-004	...........	-327.56
	617	1550.15	3.44116E+000	3.44115E+000	-3.58007E-004	...........	-327.56
	618	1552.66	3.44116E+000	3.44116E+000	-3.55940E-004	...........	-327.56
	619	1555.17	3.44116E+000	3.44115E+000	-3.61140E-004	...........	-327.56
	620	1557.68	3.44116E+000	3.44116E+000	-3.59940E-004	...........	-327.56
	621	1560.18	3.44116E+000	3.44116E+000	-3.57807E-004	...........	-327.56
	622	1562.69	3.44116E+000	3.44115E+000	-3.58473E-004	...........	-327.56
	623	1565.2	3.44116E+000	3.44116E+000	-3.58960E-004	...........	-327.56
	624	1567.71	3.44116E+000	3.44116E+000	-3.58313E-004	...........	-327.56
	625	1570.22	3.44116E+000	3.44117E+000	-3.59700E-004	...........	-327.56
	626	1572.73	3.44116E+000	3.44116E+000	-3.63820E-004	...........	-327.56
	627	1575.23	3.44116E+000	3.44116E+000	-3.60407E-004	...........	-327.56
	628	1577.74	3.44116E+000	3.44116E+000	-3.61587E-004	...........	-327.56
	629	1580.25	3.44116E+000	3.44116E+000	-3.63813E-004	...........	-327.56
	630	1582.76	3.44116E+000	3.44116E+000	-3.58953E-004	...........	-327.56
	631	1585.27	3.44116E+000	3.44115E+000	-3.62687E-004	...........	-327.56
	632	1587.78	3.44116E+000	3.44114E+000	-3.58827E-004	...........	-327.56
	633	1590.28	3.44116E+000	3.44116E+000	-3.57067E-004	...........	-327.56
	634	1592.79	3.44115E+000	3.44116E+000	-3.61180E-004	...........	-327.56
	635	1595.3	3.44115E+000	3.44116E+000	-3.61067E-004	...........	-327.56
	636	1597.81	3.44115E+000	3.44115E+000	-3.57133E-004	...........	-327.56
	637	1600.32	3.44115E+000	3.44115E+000	-3.57847E-004	...........	-327.56
	638	1602.83	3.44115E+000	3.44114E+000	-3.64747E-004	...........	-327.56
	639	1605.33	3.44115E+000	3.44115E+000	-3.59813E-004	...........	-327.56
	640	1607.84	3.44115E+000	3.44115E+000	-3.61627E-004	...........	-327.56
	641	1610.35	3.44115E+000	3.44115E+000	-3.59293E-004	...........	-327.56
	642	1612.86	3.44115E+000	3.44115E+000	-3.59787E-004	...........	-327.56
	643	1615.37	3.44115E+000	3.44113E+000	-3.62567E-004	...........	-327.56
	644	1617.88	3.44115E+000	3.44115E+000	-3.63613E-004	...........	-327.56
	645	1620.38	3.44115E+000	3.44118E+000	-3.60260E-004	...........	-327.56
	646	1622.89	3.44115E+000	3.44119E+000	-3.67440E-004	...........	-327.56
	647	1625.4	3.44116E+000	3.44117E+000	-3.69833E-004	...........	-327.56
	648	1627.91	3.44117E+000	3.44118E+000	-3.65467E-004	...........	-327.56
	649	1630.42	3.44118E+000	3.44119E+000	-3.66073E-004	...........	-327.56
	650	1632.93	3.44118E+000	3.44117E+000	-3.67507E-004	...........	-327.56
	651	1635.43	3.44118E+000	3.44117E+000	-3.69567E-004	...........	-327.56
	652	1637.94	3.44118E+000	3.44118E+000	-3.65080E-004	...........	-327.56
	653	1640.45	3.44118E+000	3.44118E+000	-3.66693E-004	...........	-327.56
	654	1642.96	3.44118E+000	3.44119E+000	-3.68527E-004	...........	-327.56
	655	1645.47	3.44118E+000	3.44118E+000	-3.63793E-004	...........	-327.56
	656	1647.98	3.44118E+000	3.44118E+000	-3.64193E-004	...........	-327.56
	657	1650.48	3.44118E+000	3.44115E+000	-3.67827E-004	...........	-327.56
	658	1652.99	3.44118E+000	3.44115E+000	-3.70447E-004	...........	-327.56
	659	1655.5	3.44117E+000	3.44115E+000	-3.68780E-004	...........	-327.56
	660	1658.01	3.44116E+000	3.44115E+000	-3.66907E-004	...........	-327.56
	661	1660.52	3.44116E+000	3.44114E+000	-3.68180E-004	...........	-327.56
	662	1663.03	3.44115E+000	3.44114E+000	-3.70653E-004	...........	-327.56
	663	1665.53	3.44115E+000	3.44113E+000	-3.66720E-004	...........	-327.56
	664	1668.04	3.44114E+000	3.44116E+000	-3.69273E-004	...........	-327.56
	665	1670.55	3.44114E+000	3.44114E+000	-3.65900E-004	...........	-327.56
	666	1673.06	3.44114E+000	3.44115E+000	-3.66473E-004	...........	-327.56
	667	1675.57	3.44114E+000	3.44114E+000	-3.73540E-004	...........	-327.56
	668	1678.08	3.44115E+000	3.44114E+000	-3.68860E-004	...........	-327.56
	669	1680.58	3.44114E+000	3.44113E+000	-3.70127E-004	...........	-327.56
	670	1683.09	3.44114E+000	3.44113E+000	-3.67927E-004	...........	-327.56
	671	1685.6	3.44114E+000	3.44114E+000	-3.68100E-004	...........	-327.56
	672	1688.11	3.44114E+000	3.44114E+000	-3.69393E-004	...........	-327.56
	673	1690.62	3.44114E+000	3.44115E+000	-3.66940E-004	...........	-327.56
	674	1693.13	3.44114E+000	3.44112E+000	-3.67447E-004	...........	-327.56
	675	1695.63	3.44114E+000	3.44114E+000	-3.71827E-004	...........	-327.56
	676	1698.14	3.44114E+000	3.44114E+000	-3.70513E-004	...........	-327.56
	677	1700.65	3.44114E+000	3.44113E+000	-3.73167E-004	...........	-327.56
	678	1703.16	3.44114E+000	3.44114E+000	-3.68813E-004	...........	-327.56
	679	1705.67	3.44114E+000	3.44115E+000	-3.67467E-004	...........	-327.56
	680	1708.18	3.44114E+000	3.44114E+000	-3.71540E-004	...........	-327.56
	681	1710.68	3.44114E+000	3.44113E+000	-3.73513E-004	...........	-327.56
	682	1713.19	3.44114E+000	3.44113E+000	-3.72913E-004	...........	-327.56
	683	1715.7	3.44114E+000	3.44113E+000	-3.72400E-004	...........	-327.56
	684	1718.21	3.44113E+000	3.44114E+000	-3.73693E-004	...........	-327.56
	685	1720.72	3.44113E+000	3.44114E+000	-3.72273E-004	...........	-327.56
	686	1723.23	3.44113E+000	3.44111E+000	-3.71987E-004	...........	-327.56
	687	1725.73	3.44113E+000	3.44111E+000	-3.72387E-004	...........	-327.56
	688	1728.24	3.44113E+000	3.44113E+000	-3.77573E-004	...........	-327.56
	689	1730.75	3.44112E+000	3.44114E+000	-3.70520E-004	...........	-327.56
	690	1733.26	3.44112E+000	3.44111E+000	-3.70233E-004	...........	-327.56
	691	1735.77	3.44112E+000	3.44113E+000	-3.72540E-004	...........	-327.56
	692	1738.28	3.44113E+000	3.44114E+000	-3.70333E-004	...........	-327.56
	693	1740.78	3.44113E+000	3.44113E+000	-3.74587E-004	...........	-327.56
	694	1743.29	3.44113E+000	3.44114E+000	-3.71007E-004	...........	-327.56
	695	1745.8	3.44113E+000	3.44111E+000	-3.72320E-004	...........	-327.56
	696	1748.31	3.44113E+000	3.44113E+000	-3.74513E-004	...........	-327.56
	697	1750.82	3.44113E+000	3.44113E+000	-3.75760E-004	...........	-327.56
	698	1753.33	3.44113E+000	3.44111E+000	-3.72300E-004	...........	-327.56
	699	1755.83	3.44113E+000	3.44112E+000	-3.72393E-004	...........	-327.56
	700	1758.34	3.44112E+000	3.44113E+000	-3.68867E-004	...........	-327.56
	701	1760.85	3.44112E+000	3.44112E+000	-3.70687E-004	...........	-327.56
	702	1763.36	3.44112E+000	3.44112E+000	-3.67100E-004	...........	-327.56
	703	1765.87	3.44112E+000	3.44113E+000	-3.73240E-004	...........	-327.56
	704	1768.38	3.44112E+000	3.44112E+000	-3.68527E-004	...........	-327.56
	705	1770.88	3.44113E+000	3.44114E+000	-3.69553E-004	...........	-327.56
	706	1773.39	3.44113E+000	3.44113E+000	-3.68493E-004	...........	-327.56
	707	1775.9	3.44113E+000	3.44112E+000	-3.66713E-004	...........	-327.56
	708	1778.41	3.44113E+000	3.44111E+000	-3.72173E-004	...........	-327.56
	709	1780.92	3.44113E+000	3.44114E+000	-3.71153E-004	...........	-327.56
	710	1783.43	3.44113E+000	3.44113E+000	-3.72547E-004	...........	-327.56
	711	1785.93	3.44113E+000	3.44114E+000	-3.72427E-004	...........	-327.56
	712	1788.44	3.44113E+000	3.44114E+000	-3.69393E-004	...........	-327.56
	713	1790.95	3.44113E+000	3.44113E+000	-3.70867E-004	...........	-327.56
	714	1793.46	3.44114E+000	3.44115E+000	-3.71827E-004	...........	-327.56
	715	1795.97	3.44114E+000	3.44113E+000	-3.73140E-004	...........	-327.56
	716	1798.48	3.44114E+000	3.44114E+000	-3.74900E-004	...........	-327.56
	717	1800.98	3.44114E+000	3.44113E+000	-3.68120E-004	...........	-327.56
EOC	QUANT	3.44114	Open Circuit (V)
PSTATMODEL	IQUANT	5	Pstat Model
PSTATSECTION	LABEL	REF3000-51199	Pstat Section
PSTATSERIALNO	LABEL	51199	Pstat Serial Number
CTRLMODE	IQUANT	1	Control Mode
ELECTROMETER	IQUANT	0	RE=0 or CS=1
IESTAB	IQUANT	0	I/E Stability
CASPEED	IQUANT	3	Control Amp Speed
CONVENTION	IQUANT	1	Current Convention
ICHRANGE	IQUANT	2	Ich Range
ICHRANGEMODE	TOGGLE	F	Ich Auto Range
ICHOFFSETENABLE	TOGGLE	T	Ich Offset Enable
ICHOFFSET	QUANT	0	Ich Offset (V)
ICHFILTER	IQUANT	3	Ich Filter
VCHRANGE	IQUANT	2	Vch Range
VCHRANGEMODE	TOGGLE	F	Vch Auto Range
VCHOFFSETENABLE	TOGGLE	T	Vch Offset Enable
VCHOFFSET	QUANT	0	Vch Offset (V)
VCHFILTER	IQUANT	3	Vch Filter
ACHRANGE	IQUANT	2	Ach Range
ACHOFFSETENABLE	TOGGLE	F	Ach Offset Enable
ACHOFFSET	QUANT	0	Ach Offset (V)
ACHFILTER	IQUANT	1	Ach Filter
IERANGELOWERLIMIT	IQUANT	2	I/E Range Lower Limit
IERANGEMODE	TOGGLE	F	I/E AutoRange
IERANGE	IQUANT	12	I/E Range
POSFEEDENABLE	TOGGLE	F	Positive Feedback IR Comp
POSFEEDRESISTANCE	QUANT	0	Positive Feedback Resistance (ohm)
ACHSELECT	IQUANT	4	Ach Select
SENSECABLEID	IQUANT	14	Sense Cable ID
PWRCABLEID	IQUANT	7	Power Cable ID
DCCALDATE	LABEL	1/28/2026	DC Calibration Date
ACCALDATE	LABEL	1/28/2026	AC Calibration Date
THERMOSELECT	IQUANT	1	Thermo Select
FRAMEWORKVERSION	LABEL	7.11.0	Framework Version
INSTRUMENTVERSION	LABEL	5.20	Instrument Version
COMMVERSION	LABEL	5.10	Communications Version
CPUPLDVERSION	LABEL	6.00	CPU PLD Version
CTRLPLDVERSION	LABEL	3.21	CTRL PLD Version
PSTATPLDVERSION	LABEL	0.00	PSTAT PLD Version
COMPLIANCEVOLTAGE	IQUANT	0	Compliance Voltage
ZCURVE	TABLE
	Pt	Time	Freq	Zreal	Zimag	Zsig	Zmod	Zphz	ZrealDrCor	ZimagDrCor	ZmodDrCor	ZphzDrCor	Idc	Vdc	IERange	Imod	Vmod	Temp	Ithd	Vthd	IHr1	IHi1	VHr1	VHi1	IHr2	IHi2	VHr2	VHi2	IHr3	IHi3	VHr3	VHi3	IHr4	IHi4	VHr4	VHi4	IHr5	IHi5	VHr5	VHi5	IHr6	IHi6	VHr6	VHi6	IHr7	IHi7	VHr7	VHi7	IHr8	IHi8	VHr8	VHi8	IHr9	IHi9	VHr9	VHi9	IHr10	IHi10	VHr10	VHi10
	#	s	Hz	ohm	ohm	V	ohm	deg	ohm	ohm	ohm	deg	A	V	#	A	V	degC	#	#	A	A	V	V	A	A	V	V	A	A	V	V	A	A	V	V	A	A	V	V	A	A	V	V	A	A	V	V	A	A	V	V	A	A	V	V	A	A	V	V
	0	2	10078.13	0.0288188	0.0248984	1	0.0380849	40.8258	0.0288188	0.0248984	0.0380849	40.8258	-0.0884891	3.437618	12	0.2343636	0.0089243	-327.5556	0.1280722	0.2481512	-17.96118	11.28505	-0.7990924	-0.1178422	-0.962184	1.645192	-0.1105051	0.0037494	0.2119275	1.698757	-0.1162465	0.0708259	-0.5892729	-0.5921833	0.0354961	-0.077235	-0.259543	-0.0656274	-0.0025315	-0.0328403	0.1900763	-0.0804961	0.0190637	0.0230757	0.0249982	-0.0273418	0.0054341	0.0029957	-0.0093169	-0.016487	0.002418	-0.002533	0.0254054	0.0343613	-0.0058799	0.0072968	0.0377464	0.0082937	-4.08888E-005	0.0087597
	1	3	8015.625	0.028597	0.0197954	1	0.0347799	34.6917	0.028597	0.0197954	0.0347799	34.6917	-0.0852703	3.437611	12	0.3563918	0.012394	-327.5556	0.10021	0.2018853	17.09534	-27.35429	1.028428	-0.4480256	0.4403825	1.385859	-0.0413649	0.0591996	-2.531089	-0.3646656	-0.057514	-0.1595786	-0.5401565	0.7725397	-0.0775695	-0.0153282	-0.3322483	-0.7036138	0.0545282	-0.0572305	-0.4773013	-0.0188026	-0.0158155	-0.0548675	0.1156946	-0.1622616	0.0259914	0.0084543	-0.0807285	-0.1576737	0.0199509	-0.0185523	0.0320545	0.0074112	0.0002549	0.0057898	0.0166962	-0.0144539	0.0032785	0.0023367
	2	5	6328.125	0.0283931	0.0154598	1	0.0323291	28.56797	0.0283931	0.0154598	0.0323291	28.56797	-0.0819616	3.437632	12	0.3504275	0.0113283	-327.5556	0.1003714	0.1817818	-18.3342	25.88108	-0.9191533	0.4543567	0.1807847	1.391919	-0.0381949	0.0467441	2.368671	0.9002518	0.0296727	0.1375899	-0.7006327	0.5918985	-0.0588399	-0.0238967	0.0991225	0.7769673	-0.0553043	0.0339673	-0.4313767	-0.1777967	0.0008568	-0.0453222	-0.1711939	0.1059825	-0.0173621	-0.0142217	-0.0095546	-0.1700625	0.0198009	-0.007646	-0.0256639	-0.0233917	0.0021105	-0.0044184	0.0130147	-0.0076345	0.0017266	0.0015299
	3	7	5015.625	0.028291	0.0120177	1	0.0307377	23.01521	0.028291	0.0120177	0.0307377	23.01521	-0.0804733	3.437597	12	0.3756537	0.0115463	-327.5556	0.0956512	0.1579918	28.05096	-19.21363	1.023918	-0.2090924	-0.7887038	1.031872	-0.0485878	0.0102572	-0.2469486	-2.617892	0.0902729	-0.0864022	-0.6635258	-0.6163702	0.0097169	-0.0516005	0.8814738	0.0851687	0.0236486	0.0563195	0.409643	-0.289088	0.0345542	0.0199012	-0.0890613	0.2472178	-0.0236187	0.0008316	0.0801409	0.1974591	-0.0159413	0.0147789	-0.0418292	-0.0362761	0.0022888	-0.0058508	-0.0442837	0.0119214	-0.0030208	-0.0047565
	4	9	3984.375	0.0282621	0.0092345	1	0.0297325	18.09455	0.0282621	0.0092345	0.0297325	18.09455	-0.0779884	3.437621	12	0.3817664	0.0113506	-327.5556	0.0934293	0.1391403	32.41019	-11.98029	1.026504	-0.0413942	-1.147666	0.4035779	-0.040908	-0.0109241	1.69938	-2.005747	0.1086485	-0.0074497	0.1776134	-0.8674708	0.0394076	-0.0192478	0.2017321	0.8986568	-0.0373163	0.0380671	0.3287927	0.3849453	-0.0118408	0.0311941	-0.2531965	-0.1362674	0.0009999	-0.0215244	-0.2274348	0.0042818	-0.0080903	-0.0173008	0.0642157	-0.0174728	0.0037603	0.0047303	0.0312389	-0.0512915	0.005933	0.0010607
	5	11	3170.956	0.028302	0.0069765	1	0.0291491	13.84746	0.028302	0.0069765	0.0291491	13.84746	-0.0765515	3.4376	12	0.3835604	0.0111803	-327.5556	0.0911669	0.1234922	29.29367	18.62998	0.7002752	0.7304816	0.0280707	-1.144711	0.0185721	-0.0321999	-0.977858	2.384561	-0.0843921	0.0450347	-0.6178514	0.6222169	-0.0377349	-0.0009706	0.8888059	-0.2838665	0.0380724	0.0260191	0.5113966	0.0563848	0.0131589	0.0256817	-0.2396487	-0.1810852	0.0022418	-0.0185819	-0.1262809	-0.2065911	0.0087473	-0.0143724	-0.007981	0.0719384	-0.0051181	0.0019803	-0.0160114	0.0699028	-0.0059469	0.0011468
	6	13	2527.573	0.0283944	0.0051245	1	0.0288531	10.23034	0.0283944	0.0051245	0.0288531	10.23034	-0.074943	3.437599	12	0.3801006	0.010967	-327.5556	0.0887698	0.1104406	26.83364	-21.5292	0.8716273	-0.474927	-0.7500404	0.7551106	-0.0303447	0.0123031	-0.3020845	-2.460693	0.0377051	-0.0752525	-0.7258626	-0.4678202	-0.0093538	-0.0318515	0.906229	-0.1922391	0.0329616	0.0226312	0.2580471	-0.4544884	0.0247629	-0.0040149	0.0628308	0.2969057	-0.0109477	0.0117441	0.226585	0.1158174	0.0013881	0.0146289	-0.0745395	0.0114185	-0.0028861	-0.0037944	-0.0237398	0.0852832	-0.0057464	0.0012271
	7	15	1976.103	0.028561	0.0034705	1	0.0287711	6.928061	0.028561	0.0034705	0.0287711	6.928061	-0.0734478	3.437601	12	0.3767023	0.0108381	-327.5556	0.0850722	0.0981559	23.0264	25.14494	0.5711993	0.7974942	0.6712094	-0.7033042	0.0253587	-0.0137317	-2.27655	0.5201625	-0.0716231	-0.0184704	-0.7815212	-0.312473	-0.0164294	-0.0241363	0.4306479	0.8075554	-0.0071602	0.0339627	-0.0768605	0.5270095	-0.0176761	0.0132776	0.2442375	-0.192044	0.0138199	0.0026448	0.2690407	-0.0184372	0.0088222	0.0097988	-0.0551242	-0.0559098	0.000643	-0.0041412	-0.0403318	-0.0899901	0.0030684	-0.0048583
	8	16	1577.524	0.0287637	0.0022192	1	0.0288492	4.411845	0.0287637	0.0022192	0.0288492	4.411845	-0.0725739	3.437582	12	0.3673435	0.0105975	-327.5556	0.0813196	0.0888742	-14.97996	29.68231	-0.4960851	0.8209291	-0.1510544	0.8815385	-0.0103169	0.023999	2.005416	0.7515092	0.0476717	0.0439868	-0.451588	0.684935	-0.0234268	0.012611	0.5492821	0.6832237	0.0026066	0.0303695	-0.4935204	0.2231785	-0.0194747	-0.005147	0.012433	0.3012831	-0.0078201	0.0090959	-0.2785271	-0.046377	-0.0067282	-0.0101206	-0.0458201	0.0599448	-0.0034893	0.0002416	-0.089709	-0.0663258	-0.000124	-0.0055292
	9	18	1265.625	0.0290117	0.0011881	1	0.029036	2.345182	0.0290117	0.0011881	0.029036	2.345182	-0.0708077	3.437603	12	0.3611898	0.0104875	-327.5556	0.0754882	0.0790635	22.64659	23.57636	0.6294643	0.7104874	0.6130906	-0.4246702	0.0194261	-0.0089978	-1.914925	0.188767	-0.0553687	-0.0116239	-0.7160541	-0.3356439	-0.0162759	-0.0182457	0.3887821	0.7468001	-0.000488	0.0272893	-0.0581576	0.5369688	-0.0117064	0.0141058	0.219555	-0.2124529	0.0109928	-0.0013125	0.2911033	-0.0667655	0.0101097	0.0053368	-0.0679251	-0.0423444	-0.0009155	-0.0031366	-0.0789199	-0.1004247	0.000912	-0.0054441
	10	20	998.264	0.0293165	0.0002506	1	0.0293175	0.4897318	0.0293165	0.0002506	0.0293175	0.4897318	-0.0704219	3.437571	12	0.3533252	0.0103586	-327.5556	0.0693257	0.0701608	31.97461	-0.5504314	0.9375143	-0.0086048	-0.35106	-0.5074519	-0.0083649	-0.0157936	1.309419	1.072587	0.0298398	0.0388216	0.6674624	0.3144429	0.0159893	0.0148101	-0.766167	-0.1702498	-0.0197558	-0.0138173	-0.5457582	0.0158697	-0.0157058	-0.0076094	0.2868317	-0.0517886	0.0090845	0.0035064	0.2836798	-0.1358885	0.0107434	0.0017385	-0.0661965	0.0362568	-0.0025387	-0.0005639	-0.0830156	0.1196361	-0.005262	0.0012267
	11	22	796.875	0.0296588	-0.0005097	1	0.0296632	-0.984651	0.0296588	-0.0005097	0.0296632	-0.984651	-0.0679578	3.437634	12	0.345426	0.0102464	-327.5556	0.0623051	0.0614395	30.35693	-7.477903	0.8964393	-0.2376263	-0.4198599	-0.2741419	-0.0113918	-0.0089028	1.44161	0.1884881	0.0398588	0.0123096	0.6047173	-0.2145756	0.018513	-0.0019559	-0.5148585	0.5132919	-0.0192388	0.0097451	-0.1626769	0.491496	-0.010159	0.0121868	-0.0224261	-0.2903806	0.0032356	-0.0085484	-0.1723225	-0.2698705	-0.000694	-0.0104636	0.0666274	0.0517445	0.0010512	0.0028234	0.1624369	0.0084565	0.0044829	0.0033543
	12	23	627.7902	0.0300571	-0.0012049	1	0.0300812	-2.29558	0.0300571	-0.0012049	0.0300812	-2.29558	-0.0684078	3.437579	12	0.3389333	0.0101955	-327.5556	0.054548	0.0527636	-5.721691	-30.13843	-0.2085807	-0.8989123	0.306784	0.2817641	0.0086901	0.0086007	-0.4675982	1.104549	-0.017031	0.0298979	0.5681185	-0.0001918	0.0161803	0.0027765	0.2328949	0.5946345	0.0025079	0.0185833	0.3458598	-0.3462072	0.0127526	-0.0068638	0.2460284	0.1164045	0.0057795	0.0058389	0.0051976	-0.3253235	0.004061	-0.0090454	0.07522	-0.0193347	0.0025218	0.0004903	-0.1268791	-0.125676	-0.0018233	-0.0055385
	13	25	505.5147	0.0304766	-0.0017479	1	0.0305267	-3.282524	0.0304766	-0.0017479	0.0305267	-3.282524	-0.0670039	3.4376	12	0.3320366	0.010136	-327.5556	0.0479924	0.045567	-30.04952	-0.4250766	-0.9165388	0.0398078	-0.1238563	-0.3199926	-0.0035356	-0.0095196	-0.4607352	-0.8944118	-0.0113914	-0.0266025	0.2957138	0.3863038	0.007134	0.0121503	0.4072239	0.3863461	0.0096018	0.0131038	-0.3765501	-0.2367272	-0.0091848	-0.009129	-0.2303213	-0.1023344	-0.0056133	-0.0048049	0.3058696	0.065908	0.0079858	0.004704	0.0743739	0.008816	0.0020137	0.0010378	-0.1802356	0.0332139	-0.0054131	-0.0013704
	14	27	397.9953	0.0309817	-0.002278	1	0.0310654	-4.205282	0.0309817	-0.002278	0.0310654	-4.205282	-0.066311	3.437597	12	0.3250762	0.0100986	-327.5556	0.0409691	0.038217	17.72669	23.48297	0.602839	0.6870383	0.2757802	-0.0196152	0.0082378	-0.0006995	-0.5771773	-0.5743301	-0.0160195	-0.0173533	-0.0163398	-0.4050219	0.0004509	-0.0117552	-0.316803	0.3529314	-0.0102708	0.0088594	-0.3888052	0.0414001	-0.0112271	-0.0006094	0.174922	0.1366892	0.0041008	0.0048884	0.0511988	0.2869171	-0.000443	0.0084801	0.0418812	-0.0568089	0.0016236	-0.0012686	0.1722103	-0.0511763	0.0053121	6.628036E-005
	15	28	315.5048	0.0315218	-0.0027135	1	0.0316384	-4.920002	0.0315218	-0.0027135	0.0316384	-4.920002	-0.0654956	3.437599	12	0.3180965	0.0100641	-327.5556	0.0346667	0.031879	-27.29353	-9.163713	-0.8852411	-0.2146534	0.072567	-0.2116112	0.0019338	-0.0065961	0.38769	-0.5228278	0.011512	-0.0150728	-0.2413488	0.2357126	-0.0072966	0.0065932	-0.3311088	0.2163683	-0.0099748	0.0055237	0.3056159	-0.1402999	0.009195	-0.0030792	0.18608	-0.0464435	0.0054643	-0.0005229	-0.2617419	0.0245905	-0.0075631	-0.000645	-0.0610755	-0.0066988	-0.0018618	-0.0006704	0.1680249	0.0349816	0.0043991	0.0021212
	16	30	252.4038	0.0320964	-0.003075	1	0.0322434	-5.472476	0.0320964	-0.003075	0.0322434	-5.472476	-0.064981	3.437591	12	0.3114026	0.0100407	-327.5556	0.0291518	0.026663	22.4076	17.09651	0.7718368	0.4797336	0.1533495	-0.097084	0.004508	-0.0031898	-0.5188824	-0.0658134	-0.0154765	-0.0016446	-0.2254996	-0.1631863	-0.0065367	-0.0049107	0.1250383	0.3026232	0.003177	0.0090194	-0.0263302	0.279099	-0.0015844	0.0080583	0.0936064	-0.1310072	0.0031095	-0.003473	0.2073554	-0.0993275	0.0062411	-0.0020912	-0.0498951	-0.0041855	-0.0014856	-0.0003834	-0.1328293	-0.0797543	-0.0033977	-0.0031176
	17	32	198.6229	0.0327424	-0.0033997	1	0.0329184	-5.927921	0.0327424	-0.0033997	0.0329184	-5.927921	-0.0638815	3.43761	12	0.3042745	0.0100162	-327.5556	0.0239152	0.0215393	25.09913	11.33462	0.8603699	0.2857049	0.0774131	-0.1222384	0.0023026	-0.004053	-0.3622475	0.191307	-0.0107539	0.0060041	-0.2179619	0.0417685	-0.0065166	0.0013344	0.2592606	0.0388791	0.0075307	0.0012138	0.2085484	0.0957447	0.006005	0.0028858	-0.0964008	-0.0894626	-0.0025887	-0.002677	-0.0988183	-0.1659536	-0.00256	-0.005055	0.0093542	0.0422287	7.271767E-005	0.0012331	-0.0047081	0.1337456	-0.0007107	0.0036123
	18	33	158.3615	0.0334132	-0.0036534	1	0.0336123	-6.239884	0.0334132	-0.0036534	0.0336123	-6.239884	-0.0630672	3.437616	12	0.2979014	0.0100132	-327.5556	0.0195841	0.0174027	-7.025687	-26.03153	-0.3299223	-0.8441028	0.0831913	0.0789799	0.0027003	0.0023206	-0.1912688	0.2581812	-0.0054247	0.0081351	0.1703334	0.0473397	0.0051903	0.0012348	0.0111818	0.2116999	0.0004649	0.0062642	0.1681633	-0.0823864	0.0048983	-0.0024977	0.075664	0.0744569	0.0020782	0.002183	0.0614746	-0.1490846	0.0019926	-0.0042028	0.0346206	-0.0001887	0.0008245	0.0001142	-0.0432548	-0.1040487	-0.0009408	-0.003165
	19	35	125.558	0.0341268	-0.0038347	1	0.0343416	-6.411242	0.0341268	-0.0038347	0.0343416	-6.411242	-0.0627307	3.437607	12	0.2912844	0.0100032	-327.5556	0.0159308	0.0140701	19.1837	18.08449	0.7240629	0.5435554	0.089626	-0.0315844	0.0026536	-0.001194	-0.2052456	-0.1441456	-0.0067766	-0.0040764	-0.0415719	-0.1347943	-0.001492	-0.004123	-0.0671177	0.1549696	-0.0018666	0.0045998	-0.1308366	0.0739079	-0.0038586	0.0023022	0.0798139	0.0145165	0.0022616	0.0003545	0.0895449	0.0966897	0.0024595	0.0027075	-0.0025898	-0.0245484	4.589558E-005	-0.0007625	0.0492131	-0.080549	0.0014899	-0.0024066
	20	37	100.4464	0.0348476	-0.0039466	1	0.0350703	-6.461368	0.0348476	-0.0039466	0.0350703	-6.461368	-0.0615465	3.437628	12	0.2851115	0.009999	-327.5556	0.0128998	0.0114761	-10.52134	-23.56306	-0.4596766	-0.779568	0.0678908	0.0298468	0.0022764	0.000684	-0.051324	0.1903122	-0.0012238	0.006191	0.1091891	-0.0293458	0.0034118	-0.0011672	0.0855092	0.1029093	0.0028639	0.0030904	0.0430087	-0.1122497	0.001261	-0.0034029	0.0645938	-0.0089069	0.0019082	-0.0001459	-0.0626402	-0.0852192	-0.001846	-0.0024719	0.0064429	-0.0165564	0.0002688	-0.000536	-0.0744703	0.0048967	-0.002216	0.000124
	21	39	79.00281	0.0356255	-0.0039816	1	0.0358473	-6.377042	0.0356255	-0.0039816	0.0358473	-6.377042	-0.0617716	3.437597	12	0.2786713	0.0099896	-327.5556	0.0102009	0.0089348	9.70113	-23.28218	0.2528725	-0.8680761	-0.0254355	0.0562761	-0.0006876	0.0019068	-0.0592583	-0.1396974	-0.0022411	-0.0043288	-0.0885906	0.0068234	-0.0027893	0.0004956	0.0285748	-0.0963723	0.0006547	-0.0030398	-0.0739523	-0.0552715	-0.0023997	-0.0015633	0.0385468	-0.028293	0.0011039	-0.0009613	-0.0227129	-0.077744	-0.0007342	-0.0023372	0.0128371	0.0006183	0.0003715	0.000133	0.0217187	-0.0578928	0.0005367	-0.0017047
	22	41	63.3446	0.0363466	-0.0039319	1	0.0365587	-6.174157	0.0363466	-0.0039319	0.0365587	-6.174157	-0.0608773	3.437611	12	0.273208	0.0099881	-327.5556	0.0082691	0.0072581	-13.72888	-20.56673	-0.5798875	-0.693531	0.0488692	0.0010063	0.0015583	-0.0001978	0.0209419	0.1184889	0.0009608	0.0039456	0.0456283	-0.0541439	0.0013735	-0.0018198	0.0816395	0.0081443	0.002583	9.083748E-005	-0.0328407	-0.0656546	-0.0012891	-0.0019896	0.0153903	-0.033586	0.0003377	-0.0008876	-0.0638395	0.0124676	-0.001862	0.0004308	-0.0068113	-0.0055656	-0.0003982	-0.0002089	-0.0054204	0.0459075	-8.249284E-005	0.0013533
	23	43	49.86702	0.0370994	-0.0037929	1	0.0372928	-5.837478	0.0370994	-0.0037929	0.0372928	-5.837478	-0.0601246	3.437619	12	0.2673866	0.0099721	-327.5556	0.0065318	0.0056994	6.441195	-23.32816	0.1504345	-0.8899485	-0.0007814	0.0403554	-1.525879E-005	0.0013942	-0.0633612	-0.0667887	-0.0023441	-0.0020553	-0.0467063	0.0297151	-0.0014369	0.0010777	-0.0206664	-0.0576896	-0.0007932	-0.0018094	-0.0586851	-0.0002278	-0.0017791	0.0001352	0.006356	-0.0284921	0.0001501	-0.0009098	-0.0459069	-0.0199834	-0.001439	-0.000526	0.0050247	-0.0056991	0.0001495	-0.0001926	-0.0237646	-0.0252766	-0.0007968	-0.0007708
	24	44	39.72458	0.0377636	-0.0035809	1	0.037933	-5.416836	0.0377636	-0.0035809	0.037933	-5.416836	-0.0598174	3.437608	12	0.2619	0.009935	-327.5556	0.0050962	0.0045032	2.241372	23.59828	0.1691942	0.883151	0.0220331	0.023931	0.0007706	0.0008412	0.069152	-0.017596	0.0022717	-0.0008617	0.0162289	0.0382299	0.000711	0.0012318	0.036977	-0.0253993	0.0010905	-0.0009444	0.023195	0.0385864	0.0009193	0.0012333	0.0166747	-0.0147645	0.0004694	-0.0004803	0.0278371	0.0265758	0.0009935	0.0007559	0.0012131	-0.00388	2.145767E-006	-0.000127	0.0238975	0.0107032	0.0008032	0.000227
	25	46	31.6723	0.0383595	-0.0033107	1	0.0385021	-4.932792	0.0383595	-0.0033107	0.0385021	-4.932792	-0.0600434	3.437582	12	0.2560422	0.0098584	-327.5556	0.0040123	0.0036179	-19.84224	-11.9722	-0.8008066	-0.3935338	0.0103986	-0.0263057	0.0004089	-0.000946	0.0548097	0.0057523	0.0019474	4.059076E-005	-0.0266607	-0.0170808	-0.0010026	-0.0005666	-0.0158088	-0.0265041	-0.000612	-0.0008218	-0.0056186	0.0363149	-9.465219E-005	0.0012519	-0.0094847	0.0113833	-0.0002868	0.0004214	0.0269366	-0.0133294	0.0008378	-0.0004928	0.0005628	0.0004218	1.549721E-005	1.084805E-005	-0.0154344	-0.0119073	-0.0005476	-0.0003279
	26	48	24.93351	0.0389055	-0.002984	1	0.0390197	-4.385862	0.0389055	-0.002984	0.0390197	-4.385862	-0.0590629	3.437605	12	0.2472985	0.0096497	-327.5556	0.0030525	0.0027641	22.36182	0.971293	0.8729062	-0.0289646	-0.0158361	-0.0172278	-0.0005898	-0.0006268	-0.0066433	0.0412971	-7.009507E-005	0.0014994	-0.0039429	0.0240887	-6.818772E-005	0.0008515	0.0025831	-0.0189614	6.151199E-005	-0.0006678	0.0064942	-0.0246082	0.0001402	-0.0008727	-0.0017689	0.0105198	-7.390977E-005	0.0003642	-0.0076422	0.0204122	-0.00017	0.0006713	0.0009898	0.0003025	1.430512E-005	-2.372265E-005	0.0058954	-0.0116805	0.0001671	-0.0004766
	27	50	19.86229	0.0393455	-0.0026576	1	0.0394352	-3.864185	0.0393455	-0.0026576	0.0394352	-3.864185	-0.0573389	3.437678	12	0.2730841	0.0107692	-327.5556	0.002548	0.002268	1.434982	-24.67506	-0.0091395	-0.974675	0.0186143	0.0167194	0.0006425	0.0005599	-0.0328857	-0.0060857	-0.0012715	-4.589559E-005	-0.0034526	0.0229962	-0.0001721	0.0007887	-0.0203804	-0.004075	-0.00073	-0.0001906	-0.0082419	0.0198928	-0.0003347	0.0006016	-0.0100049	-0.0054653	-0.0003703	-0.000128	-0.0094325	0.0175381	-0.0002227	0.0006416	-0.0036331	-0.0010736	-0.0001502	-4.899503E-005	-0.0095345	0.0123946	-0.0002198	0.0003986
	28	51	15.83615	0.0396913	-0.0023517	1	0.0397609	-3.390763	0.0396913	-0.0023517	0.0397609	-3.390763	-0.0577792	3.437647	12	0.2514304	0.0099971	-327.5556	0.002167	0.0019643	1.287597	-22.72043	-0.0023417	-0.9048355	0.0163752	0.0159025	0.00056	0.0006216	-0.0247905	-0.0040306	-0.0009251	-0.000101	-0.0033106	0.0171784	-6.890298E-005	0.0006869	-0.0149426	-0.0027071	-0.000591	-0.0001111	-0.0088229	0.0175277	-0.0002735	0.0005701	-0.0058795	-0.0019631	-0.0002377	-8.666516E-005	-0.0075674	0.0123903	-0.0001416	0.000387	-0.0014446	-0.0012854	-3.886224E-005	-6.425382E-005	-0.0059736	0.0083481	-0.0001154	0.0003197
	29	53	12.40079	0.0399852	-0.0020154	1	0.040036	-2.885404	0.0399852	-0.0020154	0.040036	-2.885404	-0.0571672	3.437658	12	0.2496945	0.0099968	-327.5556	0.0018201	0.0016298	1.201022	-22.56783	0.0025277	-0.9048039	0.0143475	0.0146477	0.0004296	0.0005406	-0.0211879	0.0008399	-0.0008235	0.0001746	-0.0042173	0.0146643	-0.0001357	0.0005544	-0.0111387	-0.0031864	-0.0004261	-8.863212E-005	-0.0046443	0.0130188	-0.0001459	0.0004356	-0.0051249	-0.001069	-0.0001535	4.029274E-005	-0.0054995	0.0100266	-8.034707E-005	0.0003946	-0.0027957	0.0013018	-7.271768E-005	7.617474E-005	-0.0056965	0.0079819	-7.987023E-005	0.0002408
	30	55	9.93114	0.0402042	-0.00175	1	0.0402423	-2.492438	0.0402042	-0.00175	0.0402423	-2.492438	-0.0562908	3.437685	12	0.2486459	0.0100061	-327.5556	0.0014415	0.0012541	1.145377	-22.4757	0.006705	-0.9056243	0.0170265	0.0102765	0.0005264	0.000322	-0.017157	0.0001083	-0.0006464	-3.254415E-005	-0.0018608	0.0083418	-0.0000958	0.0003174	-0.0091248	-0.0039973	-0.0003536	-0.0001116	-0.0039836	0.0083001	-0.0001392	0.0003318	-0.0038447	-0.0014068	-0.00014	-5.865098E-005	-0.0039162	0.0060639	-0.0001283	0.0001773	-0.0002103	-0.0004629	5.483627E-005	-5.030633E-005	-0.0037236	0.0047375	-0.0001104	0.000158
	31	56	7.944915	0.0403754	-0.0015169	1	0.0404039	-2.151514	0.0403754	-0.0015169	0.0404039	-2.151514	-0.0566645	3.437655	12	0.2473593	0.0099943	-327.5556	0.0014337	0.0012396	1.083225	-22.36219	0.0098071	-0.9045276	0.017882	0.0123977	0.0005722	0.0004793	-0.0124394	0.0028356	-0.0005116	-8.642674E-006	-0.0017534	0.0109321	-4.625321E-005	0.0004054	-0.0082046	0.0003595	-0.0002174	-2.908707E-005	-0.0031305	0.009385	-8.559228E-005	0.0003591	-0.0042486	0.0032908	-7.462503E-005	2.563E-005	-0.0038072	0.006303	-3.790856E-005	0.0002203	-0.0001662	0.0003116	-2.217293E-005	-2.264977E-005	-0.002452	0.004117	-0.0001025	0.0001405
	32	58	6.317385	0.0405088	-0.0013066	1	0.0405299	-1.84735	0.0405086	-0.001307	0.0405297	-1.847951	-0.0559978	3.437666	12	0.2469114	0.0100073	-327.5556	0.001054	0.0008842	1.029458	-22.32415	0.0125277	-0.9056709	0.0172682	0.0052953	0.000566	0.0001429	-0.0098324	0.0006102	-0.000375	-1.072884E-006	-0.0003568	0.0054281	-2.813339E-005	0.0001667	-0.0044903	-0.0017615	-0.0001838	-7.236005E-005	-0.0020858	0.0050177	-5.197526E-005	0.0001839	-0.0027265	-0.0026398	-8.2016E-005	-0.0001366	-0.0018804	0.0043788	-3.790856E-005	0.0001473	0.000304	-0.0013823	-2.527237E-005	-5.006791E-005	-0.0006847	0.0030869	-2.646446E-005	5.888939E-005
	33	61	5.008013	0.0406246	-0.0011347	1	0.0406405	-1.599966	0.040619	-0.0011345	0.0406348	-1.599885	-0.0554389	3.437676	12	0.2460071	0.0099978	-327.5556	0.0010288	0.0008188	0.980023	-22.24444	0.0145664	-0.9047846	0.0190258	0.0035764	0.0005949	7.417798E-005	-0.0084505	0.0002667	-0.0003271	-3.516675E-005	7.323921E-005	0.0048367	8.583069E-006	0.0001084	-0.0034301	-0.001348	-0.0001383	-6.651879E-005	-0.0008583	0.0041583	-3.862382E-005	0.0001194	-0.0023628	-0.0009871	-8.2016E-005	-8.249284E-005	-0.0016235	0.003039	-1.907349E-005	0.0001098	-0.0004973	-0.0004894	-2.884865E-005	-2.980232E-006	-0.0006397	0.0020433	-3.480912E-005	4.756451E-005
	34	63	3.945707	0.0407125	-0.0009937	1	0.0407246	-1.398128	0.0407108	-0.0009944	0.040723	-1.399222	-0.0553117	3.437665	12	0.245554	0.0100001	-327.5556	0.001009	0.000786	0.9335088	-22.2054	0.0159366	-0.9049651	0.0184372	0.0054837	0.0005589	0.000142	-0.0067936	0.002886	-0.0002804	6.377697E-005	-9.491296E-005	0.0049661	-2.956391E-005	0.0001566	-0.0034966	-3.48175E-005	-0.0001347	-2.419949E-005	-0.0006652	0.0038781	-2.193451E-005	0.0001514	-0.0018439	0.0002363	-3.957749E-005	-4.005433E-005	-0.0012871	0.0033598	-3.19481E-005	0.0001156	-0.0008586	0.0005592	-4.792214E-005	1.192093E-005	-0.0013066	0.0026251	-3.83854E-005	4.327297E-005
	35	67	3.158693	0.0407822	-0.0008898	1	0.0407919	-1.249958	0.0407802	-0.0008905	0.0407899	-1.250961	-0.0551899	3.437654	12	0.2453907	0.01001	-327.5556	0.0011146	0.0008627	0.8762726	-22.19294	0.0159848	-0.9058568	0.0214002	0.0072458	0.0006716	0.0001819	-0.0067782	0.0010429	-0.0002391	-1.347065E-005	-0.0009661	0.003404	-6.27041E-005	0.0001122	-0.004014	0.0007422	-0.0001395	-1.889467E-005	-0.0008313	0.0031575	-2.789498E-005	0.0001072	-0.0012666	-0.0005274	-2.408028E-005	-5.316735E-005	-0.0007529	0.0025826	-3.480912E-005	0.0001035	0.0002627	-0.0010234	4.768372E-007	-4.60148E-005	-0.0004802	0.0022498	-2.0504E-005	5.376339E-005
	36	70	2.504006	0.0408522	-0.0008104	1	0.0408602	-1.136442	0.0408449	-0.0008114	0.040853	-1.138059	-0.0541395	3.437681	12	0.2447794	0.0100017	-327.5556	0.0010555	0.0007991	0.8721065	-22.13773	0.0176845	-0.9050809	0.0218277	0.0049879	0.0006962	6.380677E-005	-0.0032444	0.0026949	-0.0001028	9.834766E-006	0.0008177	0.0031012	-3.814698E-006	4.088879E-005	-0.0019898	0.0008429	-9.465219E-005	-2.193451E-005	-0.0005914	0.0024047	3.576279E-006	7.873774E-005	-0.0010676	0.0002107	-1.955032E-005	-2.956391E-005	-0.0008427	0.0014124	-3.099442E-005	1.788139E-005	0.000489	-0.0010367	-2.074242E-005	-4.315377E-005	-0.0005988	0.0010568	-4.148484E-005	4.291534E-006
	37	73	1.998082	0.0409035	-0.000762	1	0.0409106	-1.067254	0.040898	-0.0007618	0.0409051	-1.067143	-0.0542504	3.437657	12	0.2438929	0.0099778	-327.5556	0.0008996	0.0006876	0.8591114	-22.05795	0.0183303	-0.9029013	0.0134105	0.0112733	0.0003905	0.0003836	-0.0048753	0.0032693	-0.0001915	7.396936E-005	-0.0003744	0.0035789	-3.266336E-005	7.206202E-005	-0.0028685	0.0016495	-0.0001094	1.263619E-005	-0.0007983	0.0033904	-1.764298E-005	0.0001013	-0.0004992	0.0016723	-2.336502E-005	8.702278E-006	-0.0006989	0.0026893	-1.883507E-005	8.761883E-005	-0.00032	0.0013488	-2.169609E-005	3.576279E-005	-0.0009079	0.0018408	-5.054475E-005	4.36306E-005
	38	78	1.584686	0.040954	-0.0007319	1	0.0409606	-1.023874	0.0409491	-0.0007308	0.0409556	-1.022449	-0.0536646	3.437653	12	0.2445611	0.0100174	-327.5556	0.0013809	0.0012301	0.8809167	-22.11761	0.019887	-0.9064504	0.0269961	-0.012112	0.0008779	-0.0006157	-0.0043476	0.0047002	-0.0001564	0.0001299	-0.0022645	-0.0022734	-0.0001166	-0.0001516	-0.0018666	0.0003359	-6.771089E-005	-3.862382E-005	-0.00016	1.464784E-005	8.583069E-006	-9.119512E-006	-0.000805	-0.0004798	-5.722047E-006	-7.534028E-005	-0.0013133	0.0004286	-3.361703E-005	-2.145767E-006	0.0003546	-0.0008747	-7.390977E-006	-4.243852E-005	-0.0001514	0.0004362	-1.549721E-005	-3.266336E-005
	39	85	1.266892	0.0410081	-0.0007255	1	0.0410146	-1.013499	0.0410009	-0.0007257	0.0410073	-1.014054	-0.0527572	3.437663	12	0.243506	0.0099873	-327.5556	0.0007217	0.0006105	0.866145	-22.02262	0.019541	-0.9037353	0.0130396	-0.0009297	0.0003476	-0.0001423	0.0062237	-0.004113	0.0002601	-0.0002518	0.0011281	0.0042504	3.361702E-005	0.0001332	-0.0016442	-6.807038E-005	-5.078317E-005	-6.508828E-005	-0.0011699	0.0005166	-3.600122E-005	-5.960465E-008	-0.0006484	6.935559E-005	8.821487E-006	-5.280973E-005	-0.0004452	0.0013622	-2.384186E-007	2.408028E-005	-0.0001091	-9.221398E-005	-1.168251E-005	-1.084805E-005	-0.0002815	0.0004647	-1.859665E-005	-3.719331E-005
	40	92	0.999041	0.0410712	-0.0007402	1	0.0410779	-1.032542	0.0410615	-0.000742	0.0410682	-1.035312	-0.0521489	3.437665	12	0.2435586	0.0100049	-327.5556	0.0020489	0.0018227	0.9035303	-22.02588	0.0208037	-0.9052988	0.0410417	0.0169656	0.0015352	0.0005288	-0.0028738	0.0046302	-8.392335E-005	9.286404E-005	-0.0023424	-0.0025729	-0.0001607	-0.0001681	-0.0019683	0.0022401	-7.93934E-005	3.248453E-005	-0.0026055	0.0012358	-6.246568E-005	5.960464E-006	-0.001625	0.0006252	-3.671647E-005	-3.564359E-005	0.0003128	0.0018644	1.239777E-005	3.683567E-005	0.0006064	-0.0004645	1.716614E-005	-1.311302E-005	-0.0011307	0.0005336	-3.600122E-005	-2.94447E-005
	41	99	0.7923428	0.0411344	-0.0007773	1	0.0411418	-1.082557	0.0411247	-0.0007751	0.041132	-1.07981	-0.0517039	3.437661	12	0.2430984	0.0100015	-327.5556	0.0011023	0.0008981	0.9197246	-21.98353	0.0207438	-0.904995	0.0184666	0.0113916	0.0006194	0.0003236	-0.0042005	0.0022093	-0.0001857	1.788139E-005	-8.691103E-005	0.0015255	-3.528596E-005	-2.342463E-005	-0.0014073	0.0043394	-3.862382E-005	0.0000982	0.0055208	-0.0031536	0.0002391	-0.0001748	-0.0042886	0.0022461	-0.0001497	2.813339E-005	-0.0015699	0.001229	-5.388261E-005	2.69413E-005	-0.0015981	-0.000831	-7.271768E-005	-5.269052E-005	-0.0005579	0.0006601	-2.074242E-005	-4.22001E-005
	42	106	0.6334459	0.0411966	-0.0008326	1	0.041205	-1.15783	0.0411852	-0.0008327	0.0411936	-1.158256	-0.0509945	3.43766	12	0.2426897	0.01	-327.5556	0.0012985	0.0011991	0.965323	-21.94454	0.0214961	-0.9048446	0.0184548	0.0027964	0.0005815	-8.636714E-005	0.0153359	-0.0036443	0.0006227	-0.0002944	0.006451	0.0089397	0.000263	0.0002474	0.0034282	-0.0011201	0.0001631	-0.0001656	0.0024821	-0.0011536	0.0001101	-9.137393E-005	-0.0078893	0.0001585	-0.00032	-4.243852E-005	0.0008652	-0.0017263	5.507469E-005	-0.0001129	0.0008497	-0.0022427	4.506111E-005	-0.0001224	0.0003482	-0.0016621	1.001358E-005	-0.0001256
	43	116	0.5040323	0.041275	-0.0009079	1	0.041285	-1.260119	0.0412582	-0.0009081	0.0412682	-1.260885	-0.050416	3.437659	12	0.2424574	0.0100098	-327.5556	0.0011573	0.0010068	0.985538	-21.9226	0.0207736	-0.9057501	0.0108435	0.0115799	0.000339	0.0002255	-0.004953	-0.0018244	-0.0001843	-0.0002336	0.0015012	0.010348	4.768372E-005	0.000357	-0.00828	0.0053736	-0.0003099	0.0001163	0.0036255	-0.007187	0.0001523	-0.0003276	-0.0052334	-0.0030178	-0.0001829	-0.0001887	0.0015899	-0.0022174	9.274483E-005	-0.0001465	0.0034671	0.0045492	0.0001578	0.0001611	0.0013523	-0.0039245	4.029274E-005	-0.0002373
	44	125	0.400641	0.0413643	-0.0010044	1	0.0413765	-1.390945	0.0413464	-0.0010026	0.0413586	-1.389052	-0.049604	3.437657	12	0.2416442	0.0099984	-327.5556	0.001746	0.0014082	1.047009	-21.84607	0.0213666	-0.9046989	0.0197543	0.0294088	0.0006759	0.0009126	0.0062048	-0.0011244	0.0002687	-0.0002192	-0.0013694	-0.0001526	-8.773805E-005	-0.0001079	0.0028075	0.0015707	0.0001144	-3.08156E-005	0.0016941	-0.0018056	0.0000973	-0.000104	-0.0033669	0.0014737	-0.0001032	-4.08888E-005	0.0003356	0.0058703	2.813339E-005	0.0001875	-0.001376	0.0052524	-6.556512E-005	0.0001988	-0.0033563	0.0074896	-0.0001297	0.000227
	45	139	0.316723	0.0414643	-0.0011293	1	0.0414797	-1.560084	0.0414477	-0.0011284	0.041463	-1.559486	-0.0485401	3.437656	12	0.2408732	0.0099913	-327.5556	0.0016002	0.0013657	1.105076	-21.77333	0.0212324	-0.904064	0.0155293	0.0051795	0.000524	-5.087257E-005	0.0015124	0.0134364	8.797646E-005	0.0003872	0.0083166	0.0077706	0.000325	0.0001843	-0.0196598	0.0046223	-0.0007796	0.0001054	-0.0016091	0.0049645	-2.479553E-005	0.0001444	-0.0002849	0.0074897	1.168251E-005	0.0002111	-0.0028576	0.0023174	-0.0001059	4.11272E-005	0.0014037	-0.0035639	5.221367E-005	-0.0001721	-0.0089195	-0.0061343	-0.0003586	-0.0003033
	46	156	0.2520161	0.0415843	-0.0012661	1	0.0416036	-1.743964	0.0415655	-0.0012668	0.0415848	-1.745661	-0.0474883	3.437654	12	0.2404549	0.0100037	-327.5556	0.0018591	0.0016121	-0.3133117	-21.76124	-0.0421853	-0.9044524	0.0291785	0.0100361	0.0010679	8.243322E-005	-0.0049543	0.0042801	-0.0001895	-7.689E-006	-0.0029827	0.015027	-0.0001256	0.0005095	-0.006969	-0.0060021	-0.0002823	-0.0003588	-0.0028257	0.0082952	-7.82013E-005	0.0002713	-0.0027203	0.0063624	-0.0001023	0.0001638	0.0105009	0.0053206	0.0004613	0.0001472	-0.006707	0.0023519	-0.0002599	6.771088E-005	0.0015342	-0.0025691	6.055832E-005	-0.0001907
	47	178	0.2003205	0.0417242	-0.0014334	1	0.0417488	-1.967607	0.0416957	-0.001433	0.0417203	-1.968382	-0.0466319	3.437644	12	0.239314	0.0099911	-327.5556	0.0014533	0.0014769	0.0625385	-21.66014	-0.0297117	-0.9037989	0.0067126	0.0060934	0.0001454	-0.0001746	-0.0087364	0.0055232	-0.0003262	2.264977E-006	0.0128479	-0.0160593	0.000524	-0.0008349	0.0051437	0.012253	0.0002558	0.0003286	0.0091849	-0.0048287	0.0003939	-0.0003116	-0.0064186	-0.0032377	-0.0002642	-0.0002329	0.0033398	0.0042375	0.0001755	0.000103	-0.0016706	-0.0005583	-5.316735E-005	-0.0000992	0.0009966	-0.0031151	2.336502E-005	-0.000223
	48	200	0.1588983	0.0418769	-0.0016265	1	0.0419084	-2.224194	0.0418446	-0.0016249	0.0418762	-2.223841	-0.0454905	3.437641	12	0.2388311	0.010009	-327.5556	0.0014822	0.0011519	0.4064946	-21.6127	-0.0191407	-0.9057113	0.0167842	0.0115907	0.0006013	-1.478195E-005	0.0026786	-0.0002352	0.0001223	-0.0002617	0.0013925	0.0103113	6.508827E-005	0.0002332	0.0016244	0.0107837	9.250641E-005	0.000264	-0.009465	0.004074	-0.0003467	7.927418E-005	0.0025676	0.0067474	0.0001385	0.0001458	-0.0020563	-0.0018957	-5.817414E-005	-0.0001456	0.0013786	-0.0060931	7.534027E-005	-0.0003178	0.0092299	0.009263	0.00037	0.000268
	49	226	0.1260081	0.0420382	-0.001856	1	0.0420791	-2.52803	0.0419974	-0.0018544	0.0420383	-2.528209	-0.0444969	3.437646	12	0.2375742	0.0099969	-327.5556	0.0016555	0.0013456	0.7257092	-21.49052	-0.0101805	-0.9047591	0.0170318	0.0135141	0.000648	-3.45111E-005	-0.0110335	0.0110877	-0.0003881	8.952618E-005	-0.0071065	0.00038	-0.0003006	-0.0002031	-0.0046286	0.0059958	-0.0001485	6.914139E-006	-0.0025418	-0.0022369	-6.723405E-005	-0.0001982	-0.0025972	0.0070417	-7.343293E-005	0.0001192	-0.0122374	0.0012346	-0.0004761	-5.078317E-005	-0.0022491	-0.0049333	-8.821488E-005	-0.0002836	0.0137064	-0.0023415	0.000561	-0.0002307
	50	265	0.1001603	0.0422655	-0.0021204	1	0.0423187	-2.872064	0.0421642	-0.0021124	0.042217	-2.868035	-0.0457494	3.437645	12	0.236454	0.0100064	-327.5556	0.0023514	0.0010429	0.994355	-21.37826	-0.0039411	-0.9056689	0.0177375	0.033542	0.0007906	4.315376E-005	-0.0020026	0.0193458	6.41346E-005	4.327297E-005	-0.0031507	0.0079813	-8.225442E-005	-0.0002202	-0.0004374	0.0171161	6.628036E-005	0.0001937	-0.0087649	0.0086583	-0.0002677	-3.635884E-006	-0.0035963	0.0082434	-6.961824E-005	2.384186E-006	-0.0009532	0.0048825	2.455711E-005	-6.937982E-005	0.0030786	0.0087088	0.0001848	0.0000991	0.0009039	0.0020438	8.487701E-005	-0.00017
	51	302	0.0794492	0.0425054	-0.0024408	1	0.0425754	-3.286466	0.042352	-0.0024275	0.0424215	-3.280392	-0.0464278	3.437648	12	0.2348642	0.0099994	-327.5556	0.0028189	0.0007693	1.257752	-21.22024	0.0011625	-0.9050458	0.0041488	0.0409783	0.0003719	-0.0001961	-0.0027695	0.0294802	6.484985E-005	6.443262E-005	0.0028718	0.0139647	0.0002124	-0.000253	-0.0028456	0.0156748	1.955032E-005	-5.030633E-005	-0.0008508	0.0111898	8.106232E-005	-5.275012E-005	-0.0008912	0.0104233	4.410744E-005	-7.331372E-005	-0.011222	0.0056044	-0.0003674	-0.0001715	-0.000989	0.0094343	3.790855E-005	3.242493E-005	-0.0038171	0.0079539	-5.984307E-005	-2.098084E-005
	52	342	0.0631739	0.0426394	-0.0028242	1	0.0427328	-3.78944	0.0425744	-0.0028161	0.0426674	-3.784363	-0.0413013	3.437648	12	0.2339582	0.0099977	-327.5556	0.0018961	0.0008856	1.527558	-21.12031	0.0050845	-0.9048739	0.0061825	0.030409	0.0004711	0.0001433	0.0028494	0.0083897	0.0002706	-0.000185	0.0006135	0.0096798	0.0001264	5.853176E-005	0.003978	0.0138997	0.0002563	0.0002736	-0.0073626	0.0059783	-0.0002503	1.251697E-005	1.63652E-005	0.0081991	3.600121E-005	0.0001392	-0.0003516	0.0075099	3.695488E-005	0.0001612	-0.0009284	0.0056194	-1.931191E-005	8.654594E-005	0.0023753	0.0039662	0.0001166	-3.218652E-006
	53	392	0.0501337	0.0428847	-0.0032859	1	0.0430104	-4.381475	0.0428319	-0.0032803	0.0429573	-4.379454	-0.0381969	3.437647	12	0.2325672	0.0100028	-327.5556	0.0017511	0.0010127	1.811868	-20.97146	0.0084736	-0.9053116	0.006658	0.0277972	0.0006092	6.258488E-005	-0.0055737	0.0103008	-4.529954E-006	-3.141165E-005	0.0007244	0.0098785	0.0001323	0.0001346	-0.0024094	0.0028465	-4.577638E-005	-0.0001302	-0.0067187	-0.0018852	-0.0002558	-0.0002489	0.0002234	0.0012401	4.529953E-005	-0.000142	-0.0014951	-0.0009261	-2.932549E-005	-0.000185	-0.0061272	0.0047884	-0.0002294	8.189678E-005	-0.0073206	0.0111811	-0.0002615	0.0003123
	54	473	0.0398258	0.0432012	-0.003839	1	0.0433715	-5.078134	0.0431488	-0.0038294	0.0433184	-5.071686	-0.0350751	3.43764	12	0.2305867	0.0100009	-327.5556	0.0017203	0.0006702	2.104734	-20.76393	0.0109615	-0.9051099	-0.0019864	0.0286753	0.0004392	6.133318E-005	-0.0102461	0.0141891	-0.0001304	0.0001673	-0.0040285	0.0058075	-5.435945E-005	-3.093481E-005	4.659221E-005	0.0050114	7.510185E-005	-9.655953E-006	0.0013508	0.0053841	9.393692E-005	5.018711E-005	0.0026311	0.002276	0.0001543	-8.630754E-005	-0.0041032	0.0003773	-0.0001366	-0.0001249	-0.0025752	0.0002707	-0.0001082	-0.0001105	0.0024827	0.0029342	0.0001194	-4.065038E-005
	55	576	0.0316296	0.0435373	-0.0044921	1	0.0437685	-5.890864	0.0434747	-0.0044798	0.0437049	-5.883218	-0.0324571	3.437642	12	0.2285081	0.0100014	-327.5556	0.0018516	0.0008398	2.417157	-20.54046	0.0127652	-0.9051376	-0.0054186	0.0316893	0.000473	2.524257E-005	-0.0068303	0.0096384	0.0001285	-0.000096	-0.0031984	0.0032811	2.288818E-005	-0.0001096	-0.0023702	0.0063016	-2.288819E-005	6.80685E-005	0.0055178	0.0019168	0.0002625	-0.0001211	-0.0023933	0.0086519	-7.152558E-005	0.0001634	-0.0056029	-0.0007175	-0.0002031	-0.0001791	0.0055918	0.0067795	0.0002539	0.0001181	0.0017034	-0.0005226	8.08239E-005	-0.0001907
	56	673	0.0251206	0.0439552	-0.0052737	1	0.0442704	-6.841536	0.0438798	-0.0052558	0.0441934	-6.830212	-0.0302121	3.437628	12	0.2258941	0.0100004	-327.5556	0.0024475	0.0006676	2.762357	-20.25814	0.0144258	-0.9050207	-0.0167064	0.0390969	0.0003884	0.0001776	-0.0124547	0.0119075	2.646446E-005	4.571676E-005	-0.0043028	0.0082202	4.768372E-006	9.256601E-005	-0.0024062	0.0077783	-7.867814E-006	7.796288E-005	0.0027546	0.0076195	0.0001345	0.0001248	0.0025569	0.0050595	0.0001242	-3.433229E-005	-0.0064696	0.0019777	-0.0002599	-0.0001143	-0.0004239	0.0054516	-4.768373E-007	4.947186E-005	-0.0039769	0.0076012	-0.0001154	0.0001363
	57	794	0.0199553	0.0445068	-0.0061925	1	0.0449355	-7.921045	0.0444338	-0.0061728	0.0448605	-7.908993	-0.0265356	3.43763	12	0.222617	0.0100034	-327.5556	0.00249	0.000562	3.122487	-19.90558	0.0155799	-0.9052707	-0.0215414	0.0388178	0.0003774	0.0001694	-0.0170026	0.0098095	-9.322167E-005	-1.549721E-006	-0.0046574	0.0060365	6.866455E-005	4.047155E-005	-0.0005486	0.0043887	3.933907E-005	-1.960993E-005	-0.0008473	0.0052673	-9.298326E-006	2.533197E-005	0.0014401	0.0020018	5.555153E-005	-0.000175	0.0001507	0.0033096	3.266335E-005	-8.916856E-005	-0.0033856	0.0040154	-0.0001109	-1.502037E-005	0.0012142	0.0029362	9.322166E-005	-7.843972E-005
	58	997	0.0158522	0.0452044	-0.0072509	1	0.0457822	-9.112704	0.0451205	-0.0072208	0.0456946	-9.092152	-0.0231211	3.437631	12	0.2185159	0.0100041	-327.5556	0.0028205	0.0007017	3.487572	-19.46788	0.0163941	-0.9053238	-0.0262884	0.0406294	0.0004802	0.0002159	-0.0162769	0.0096432	4.434586E-005	5.51343E-005	-0.0103265	0.0063323	-0.0001731	0.0001302	0.0015647	0.0062488	0.0001066	0.000104	0.0013249	0.0079498	6.270409E-005	0.0001099	0.0028085	0.0071408	0.0001009	3.135204E-005	0.0001092	0.0026817	2.169609E-005	-0.000121	-0.0009583	0.0056039	-2.384186E-006	3.385544E-005	-0.002128	0.0074765	-2.241135E-005	9.202957E-005
	59	1188	0.0125907	0.0460783	-0.0084392	1	0.0468448	-10.37866	0.0459877	-0.0084049	0.0467495	-10.35733	-0.0202197	3.437631	12	0.2135124	0.0100019	-327.5556	0.0030754	0.0005358	3.836007	-18.94039	0.0168347	-0.9051163	-0.0350543	0.040407	0.0003676	0.0001698	-0.0185682	0.0053742	-9.775163E-006	1.430512E-006	-0.0029	0.0037827	0.000165	2.932549E-005	0.0001513	0.0061147	2.098084E-005	8.910894E-005	0.0024587	0.0046429	6.055832E-005	-3.045797E-005	-0.0010163	0.0080954	-6.794931E-005	4.577637E-005	-0.003305	0.005301	-0.0001061	-5.650521E-005	-0.0025758	0.0071268	-4.959107E-005	6.711483E-005	-0.0019255	0.0065236	5.722046E-006	4.470348E-005
	60	1428	0.0100011	0.0471096	-0.0097696	1	0.0481119	-11.7159	0.0470156	-0.0097289	0.0480116	-11.69112	-0.0173704	3.437627	12	0.2079214	0.0100035	-327.5556	0.0035533	0.0005292	4.176501	-18.34959	0.0174222	-0.9052449	-0.0411717	0.0438199	0.0003254	0.0002279	-0.0208527	0.0028759	-0.0001042	2.336502E-005	-0.0071026	0.0035578	-1.978874E-005	0.0000961	0.0012666	0.0063651	4.076958E-005	0.0001075	0.0006542	0.009146	-2.789498E-005	0.0001189	-0.0004042	0.0095818	-4.792214E-005	5.841255E-005	0.0013883	0.0079752	0.0001123	6.79493E-006	-0.0020536	0.0050607	-2.43187E-005	-4.386903E-005	-0.0026903	0.0053995	-4.053117E-005	-4.410745E-006
