EXPLAIN
TAG	EISPOT
TITLE	LABEL	30Q_4	Test &Identifier
DATE	LABEL	6/25/2026	Date
TIME	LABEL	12:09:27	Time
NOTES	NOTES	6	&Notes...
	Potentiostatic EIS Data Test preformed on a 30Q battery.
	- 10 AC mV rms preformed on 6/25/26
	- 30Q_4
	- Custom Battery Holder Tray. Wood Base w/ reference aligator clips connected to center of banana plug.
	- No Floating Ground
	- No Faraday Cage
PSTAT	PSTAT	REF3000-51199	Potentiostat
VDC	POTEN	0.00000E+000	T	DC &Voltage (V)
FREQINIT	QUANT	1.00000E+004	Initial Fre&q. (Hz)
FREQFINAL	QUANT	1.00000E-002	Final Fre&q. (Hz)
PTSPERDEC	QUANT	1.00000E+001	Points/&decade
VAC	QUANT	1.00000E+001	AC &Voltage (mV rms)
AREA	QUANT	2.54000E+000	&Area (cm^2)
CONDIT	TWOPARAM	F	1.50000E+001	0.00000E+000	Conditionin&g	Time(s)	E(V)
DELAY	TWOPARAM	T	1.80000E+003	0.00000E+000	Init. De&lay	Time(s)	Stab.(mV/s)
SPEED	SELECTOR	1	&Optimize for:
THD	SELECTOR	1	T&HD
DRIFTCOR	SELECTOR	1	&Drift Correction
ZGUESS	QUANT	1.00000E-001	E&stimated Z (ohms)
OCVCURVE	TABLE	718
	Pt	T	Vf	Vm	Ach	Over	Temp
	#	s	V vs. Ref.	V	V	bits	deg C
	0	2.50833	3.44516E+000	3.44516E+000	-3.52053E-004	...........	-327.56
	1	5.01667	3.44516E+000	3.44516E+000	-3.52133E-004	...........	-327.56
	2	7.525	3.44516E+000	3.44517E+000	-3.53107E-004	...........	-327.56
	3	10.0333	3.44516E+000	3.44516E+000	-3.48987E-004	...........	-327.56
	4	12.5417	3.44516E+000	3.44517E+000	-3.54333E-004	...........	-327.56
	5	15.05	3.44516E+000	3.44517E+000	-3.50500E-004	...........	-327.56
	6	17.5583	3.44516E+000	3.44515E+000	-3.47840E-004	...........	-327.56
	7	20.0667	3.44517E+000	3.44518E+000	-3.51907E-004	...........	-327.56
	8	22.575	3.44517E+000	3.44516E+000	-3.55767E-004	...........	-327.56
	9	25.0833	3.44517E+000	3.44516E+000	-3.52440E-004	...........	-327.56
	10	27.5917	3.44517E+000	3.44517E+000	-3.54380E-004	...........	-327.56
	11	30.1	3.44517E+000	3.44516E+000	-3.59667E-004	...........	-327.56
	12	32.6083	3.44517E+000	3.44517E+000	-3.55433E-004	...........	-327.56
	13	35.1167	3.44516E+000	3.44515E+000	-3.52833E-004	...........	-327.56
	14	37.625	3.44516E+000	3.44517E+000	-3.55920E-004	...........	-327.56
	15	40.1333	3.44516E+000	3.44516E+000	-3.54147E-004	...........	-327.56
	16	42.6417	3.44516E+000	3.44518E+000	-3.54773E-004	...........	-327.56
	17	45.15	3.44516E+000	3.44517E+000	-3.56433E-004	...........	-327.56
	18	47.6583	3.44517E+000	3.44515E+000	-3.51347E-004	...........	-327.56
	19	50.1667	3.44517E+000	3.44515E+000	-3.55793E-004	...........	-327.56
	20	52.675	3.44516E+000	3.44518E+000	-3.54060E-004	...........	-327.56
	21	55.1833	3.44516E+000	3.44517E+000	-3.55920E-004	...........	-327.56
	22	57.6917	3.44516E+000	3.44515E+000	-3.51153E-004	...........	-327.56
	23	60.2	3.44516E+000	3.44516E+000	-3.55767E-004	...........	-327.56
	24	62.7083	3.44516E+000	3.44515E+000	-3.53367E-004	...........	-327.56
	25	65.2167	3.44516E+000	3.44516E+000	-3.59813E-004	...........	-327.56
	26	67.725	3.44516E+000	3.44515E+000	-3.52060E-004	...........	-327.56
	27	70.2333	3.44516E+000	3.44516E+000	-3.53487E-004	...........	-327.56
	28	72.7417	3.44516E+000	3.44517E+000	-3.49753E-004	...........	-327.56
	29	75.25	3.44516E+000	3.44516E+000	-3.51740E-004	...........	-327.56
	30	77.7583	3.44516E+000	3.44516E+000	-3.54420E-004	...........	-327.56
	31	80.2667	3.44516E+000	3.44515E+000	-3.51413E-004	...........	-327.56
	32	82.775	3.44516E+000	3.44516E+000	-3.53380E-004	...........	-327.56
	33	85.2833	3.44516E+000	3.44515E+000	-3.58433E-004	...........	-327.56
	34	87.7917	3.44516E+000	3.44516E+000	-3.58793E-004	...........	-327.56
	35	90.3	3.44516E+000	3.44515E+000	-3.54240E-004	...........	-327.56
	36	92.8083	3.44516E+000	3.44517E+000	-3.55500E-004	...........	-327.56
	37	95.317	3.44516E+000	3.44515E+000	-3.52913E-004	...........	-327.56
	38	97.825	3.44516E+000	3.44517E+000	-3.57940E-004	...........	-327.56
	39	100.333	3.44516E+000	3.44515E+000	-3.57473E-004	...........	-327.56
	40	102.842	3.44516E+000	3.44516E+000	-3.57513E-004	...........	-327.56
	41	105.35	3.44516E+000	3.44517E+000	-3.55853E-004	...........	-327.56
	42	107.858	3.44516E+000	3.44513E+000	-3.54093E-004	...........	-327.56
	43	110.367	3.44516E+000	3.44514E+000	-3.61560E-004	...........	-327.56
	44	112.875	3.44516E+000	3.44515E+000	-3.61887E-004	...........	-327.56
	45	115.383	3.44515E+000	3.44516E+000	-3.59133E-004	...........	-327.56
	46	117.892	3.44515E+000	3.44514E+000	-3.54233E-004	...........	-327.56
	47	120.4	3.44515E+000	3.44516E+000	-3.54813E-004	...........	-327.56
	48	122.908	3.44515E+000	3.44515E+000	-3.55727E-004	...........	-327.56
	49	125.417	3.44515E+000	3.44515E+000	-3.55753E-004	...........	-327.56
	50	127.925	3.44515E+000	3.44515E+000	-3.48073E-004	...........	-327.56
	51	130.433	3.44515E+000	3.44517E+000	-3.52100E-004	...........	-327.56
	52	132.942	3.44515E+000	3.44516E+000	-3.46913E-004	...........	-327.56
	53	135.45	3.44516E+000	3.44515E+000	-3.54313E-004	...........	-327.56
	54	137.958	3.44516E+000	3.44515E+000	-3.52907E-004	...........	-327.56
	55	140.467	3.44516E+000	3.44517E+000	-3.54980E-004	...........	-327.56
	56	142.975	3.44516E+000	3.44515E+000	-3.57947E-004	...........	-327.56
	57	145.483	3.44516E+000	3.44517E+000	-3.55607E-004	...........	-327.56
	58	147.992	3.44516E+000	3.44516E+000	-3.58600E-004	...........	-327.56
	59	150.5	3.44516E+000	3.44516E+000	-3.50480E-004	...........	-327.56
	60	153.008	3.44516E+000	3.44516E+000	-3.58533E-004	...........	-327.56
	61	155.517	3.44516E+000	3.44515E+000	-3.54807E-004	...........	-327.56
	62	158.025	3.44516E+000	3.44516E+000	-3.60953E-004	...........	-327.56
	63	160.533	3.44516E+000	3.44517E+000	-3.59793E-004	...........	-327.56
	64	163.042	3.44516E+000	3.44516E+000	-3.56573E-004	...........	-327.56
	65	165.55	3.44516E+000	3.44516E+000	-3.55200E-004	...........	-327.56
	66	168.058	3.44516E+000	3.44514E+000	-3.57240E-004	...........	-327.56
	67	170.567	3.44516E+000	3.44517E+000	-3.55107E-004	...........	-327.56
	68	173.075	3.44516E+000	3.44515E+000	-3.57687E-004	...........	-327.56
	69	175.583	3.44516E+000	3.44516E+000	-3.55600E-004	...........	-327.56
	70	178.092	3.44516E+000	3.44515E+000	-3.56553E-004	...........	-327.56
	71	180.6	3.44516E+000	3.44516E+000	-3.56720E-004	...........	-327.56
	72	183.108	3.44516E+000	3.44515E+000	-3.60473E-004	...........	-327.56
	73	185.617	3.44516E+000	3.44515E+000	-3.63567E-004	...........	-327.56
	74	188.125	3.44516E+000	3.44516E+000	-3.60240E-004	...........	-327.56
	75	190.633	3.44515E+000	3.44514E+000	-3.57907E-004	...........	-327.56
	76	193.142	3.44515E+000	3.44515E+000	-3.60440E-004	...........	-327.56
	77	195.65	3.44515E+000	3.44516E+000	-3.55727E-004	...........	-327.56
	78	198.158	3.44515E+000	3.44516E+000	-3.57500E-004	...........	-327.56
	79	200.667	3.44515E+000	3.44516E+000	-3.59620E-004	...........	-327.56
	80	203.175	3.44515E+000	3.44516E+000	-3.57173E-004	...........	-327.56
	81	205.683	3.44516E+000	3.44516E+000	-3.60580E-004	...........	-327.56
	82	208.192	3.44516E+000	3.44515E+000	-3.61433E-004	...........	-327.56
	83	210.7	3.44516E+000	3.44516E+000	-3.57653E-004	...........	-327.56
	84	213.208	3.44516E+000	3.44515E+000	-3.59347E-004	...........	-327.56
	85	215.717	3.44516E+000	3.44516E+000	-3.59647E-004	...........	-327.56
	86	218.225	3.44516E+000	3.44514E+000	-3.56713E-004	...........	-327.56
	87	220.733	3.44515E+000	3.44514E+000	-3.56133E-004	...........	-327.56
	88	223.242	3.44515E+000	3.44515E+000	-3.51867E-004	...........	-327.56
	89	225.75	3.44515E+000	3.44516E+000	-3.54180E-004	...........	-327.56
	90	228.258	3.44515E+000	3.44514E+000	-3.53480E-004	...........	-327.56
	91	230.767	3.44515E+000	3.44514E+000	-3.56640E-004	...........	-327.56
	92	233.275	3.44515E+000	3.44516E+000	-3.58347E-004	...........	-327.56
	93	235.783	3.44515E+000	3.44515E+000	-3.56253E-004	...........	-327.56
	94	238.292	3.44515E+000	3.44516E+000	-3.58453E-004	...........	-327.56
	95	240.8	3.44515E+000	3.44516E+000	-3.61440E-004	...........	-327.56
	96	243.308	3.44515E+000	3.44515E+000	-3.58713E-004	...........	-327.56
	97	245.817	3.44515E+000	3.44516E+000	-3.60727E-004	...........	-327.56
	98	248.325	3.44516E+000	3.44515E+000	-3.53987E-004	...........	-327.56
	99	250.833	3.44516E+000	3.44514E+000	-3.55267E-004	...........	-327.56
	100	253.342	3.44515E+000	3.44514E+000	-3.54367E-004	...........	-327.56
	101	255.85	3.44515E+000	3.44514E+000	-3.54600E-004	...........	-327.56
	102	258.358	3.44515E+000	3.44515E+000	-3.53847E-004	...........	-327.56
	103	260.867	3.44514E+000	3.44516E+000	-3.55967E-004	...........	-327.56
	104	263.375	3.44514E+000	3.44514E+000	-3.55327E-004	...........	-327.56
	105	265.883	3.44515E+000	3.44514E+000	-3.54780E-004	...........	-327.56
	106	268.392	3.44515E+000	3.44515E+000	-3.59360E-004	...........	-327.56
	107	270.9	3.44515E+000	3.44516E+000	-3.60113E-004	...........	-327.56
	108	273.408	3.44515E+000	3.44516E+000	-3.56173E-004	...........	-327.56
	109	275.917	3.44515E+000	3.44515E+000	-3.59967E-004	...........	-327.56
	110	278.425	3.44515E+000	3.44516E+000	-3.62160E-004	...........	-327.56
	111	280.933	3.44516E+000	3.44515E+000	-3.61720E-004	...........	-327.56
	112	283.442	3.44516E+000	3.44514E+000	-3.57500E-004	...........	-327.56
	113	285.95	3.44515E+000	3.44514E+000	-3.60493E-004	...........	-327.56
	114	288.458	3.44515E+000	3.44515E+000	-3.59953E-004	...........	-327.56
	115	290.967	3.44515E+000	3.44514E+000	-3.61420E-004	...........	-327.56
	116	293.475	3.44515E+000	3.44515E+000	-3.63693E-004	...........	-327.56
	117	295.983	3.44515E+000	3.44516E+000	-3.59807E-004	...........	-327.56
	118	298.492	3.44515E+000	3.44514E+000	-3.63540E-004	...........	-327.56
	119	301	3.44515E+000	3.44514E+000	-3.62233E-004	...........	-327.56
	120	303.508	3.44515E+000	3.44514E+000	-3.59167E-004	...........	-327.56
	121	306.017	3.44515E+000	3.44515E+000	-3.59620E-004	...........	-327.56
	122	308.525	3.44514E+000	3.44514E+000	-3.54020E-004	...........	-327.56
	123	311.033	3.44514E+000	3.44516E+000	-3.59647E-004	...........	-327.56
	124	313.542	3.44514E+000	3.44514E+000	-3.59320E-004	...........	-327.56
	125	316.05	3.44515E+000	3.44517E+000	-3.58140E-004	...........	-327.56
	126	318.558	3.44515E+000	3.44513E+000	-3.58660E-004	...........	-327.56
	127	321.067	3.44515E+000	3.44515E+000	-3.59853E-004	...........	-327.56
	128	323.575	3.44515E+000	3.44513E+000	-3.59433E-004	...........	-327.56
	129	326.083	3.44515E+000	3.44516E+000	-3.56893E-004	...........	-327.56
	130	328.592	3.44515E+000	3.44515E+000	-3.51687E-004	...........	-327.56
	131	331.1	3.44515E+000	3.44513E+000	-3.60027E-004	...........	-327.56
	132	333.608	3.44515E+000	3.44515E+000	-3.59247E-004	...........	-327.56
	133	336.117	3.44515E+000	3.44515E+000	-3.56927E-004	...........	-327.56
	134	338.625	3.44514E+000	3.44514E+000	-3.54453E-004	...........	-327.56
	135	341.133	3.44515E+000	3.44516E+000	-3.58287E-004	...........	-327.56
	136	343.642	3.44515E+000	3.44513E+000	-3.55440E-004	...........	-327.56
	137	346.15	3.44515E+000	3.44517E+000	-3.62633E-004	...........	-327.56
	138	348.658	3.44515E+000	3.44515E+000	-3.58007E-004	...........	-327.56
	139	351.167	3.44515E+000	3.44515E+000	-3.58653E-004	...........	-327.56
	140	353.675	3.44515E+000	3.44516E+000	-3.60353E-004	...........	-327.56
	141	356.183	3.44515E+000	3.44514E+000	-3.59293E-004	...........	-327.56
	142	358.692	3.44515E+000	3.44516E+000	-3.62253E-004	...........	-327.56
	143	361.2	3.44515E+000	3.44516E+000	-3.62620E-004	...........	-327.56
	144	363.708	3.44515E+000	3.44516E+000	-3.59440E-004	...........	-327.56
	145	366.217	3.44516E+000	3.44516E+000	-3.63387E-004	...........	-327.56
	146	368.725	3.44516E+000	3.44514E+000	-3.59440E-004	...........	-327.56
	147	371.233	3.44516E+000	3.44515E+000	-3.63060E-004	...........	-327.56
	148	373.742	3.44516E+000	3.44516E+000	-3.61620E-004	...........	-327.56
	149	376.25	3.44515E+000	3.44513E+000	-3.66853E-004	...........	-327.56
	150	378.758	3.44515E+000	3.44514E+000	-3.62913E-004	...........	-327.56
	151	381.267	3.44515E+000	3.44516E+000	-3.57587E-004	...........	-327.56
	152	383.775	3.44515E+000	3.44516E+000	-3.54460E-004	...........	-327.56
	153	386.283	3.44515E+000	3.44514E+000	-3.54927E-004	...........	-327.56
	154	388.792	3.44515E+000	3.44514E+000	-3.55687E-004	...........	-327.56
	155	391.3	3.44515E+000	3.44513E+000	-3.56060E-004	...........	-327.56
	156	393.808	3.44515E+000	3.44514E+000	-3.56360E-004	...........	-327.56
	157	396.317	3.44514E+000	3.44516E+000	-3.62827E-004	...........	-327.56
	158	398.825	3.44514E+000	3.44514E+000	-3.62367E-004	...........	-327.56
	159	401.333	3.44514E+000	3.44514E+000	-3.59733E-004	...........	-327.56
	160	403.842	3.44515E+000	3.44517E+000	-3.59613E-004	...........	-327.56
	161	406.35	3.44515E+000	3.44515E+000	-3.61420E-004	...........	-327.56
	162	408.858	3.44515E+000	3.44514E+000	-3.63193E-004	...........	-327.56
	163	411.367	3.44515E+000	3.44515E+000	-3.63780E-004	...........	-327.56
	164	413.875	3.44515E+000	3.44514E+000	-3.58267E-004	...........	-327.56
	165	416.383	3.44515E+000	3.44517E+000	-3.63200E-004	...........	-327.56
	166	418.892	3.44515E+000	3.44514E+000	-3.57433E-004	...........	-327.56
	167	421.4	3.44515E+000	3.44514E+000	-3.61660E-004	...........	-327.56
	168	423.908	3.44515E+000	3.44515E+000	-3.60587E-004	...........	-327.56
	169	426.417	3.44515E+000	3.44514E+000	-3.62693E-004	...........	-327.56
	170	428.925	3.44515E+000	3.44515E+000	-3.63153E-004	...........	-327.56
	171	431.433	3.44515E+000	3.44517E+000	-3.63087E-004	...........	-327.56
	172	433.942	3.44515E+000	3.44516E+000	-3.65733E-004	...........	-327.56
	173	436.45	3.44515E+000	3.44514E+000	-3.62813E-004	...........	-327.56
	174	438.958	3.44516E+000	3.44516E+000	-3.60527E-004	...........	-327.56
	175	441.467	3.44515E+000	3.44514E+000	-3.60593E-004	...........	-327.56
	176	443.975	3.44515E+000	3.44516E+000	-3.61747E-004	...........	-327.56
	177	446.483	3.44515E+000	3.44514E+000	-3.63687E-004	...........	-327.56
	178	448.992	3.44515E+000	3.44517E+000	-3.59080E-004	...........	-327.56
	179	451.5	3.44515E+000	3.44514E+000	-3.62853E-004	...........	-327.56
	180	454.008	3.44515E+000	3.44516E+000	-3.62180E-004	...........	-327.56
	181	456.517	3.44515E+000	3.44515E+000	-3.63240E-004	...........	-327.56
	182	459.025	3.44516E+000	3.44516E+000	-3.68087E-004	...........	-327.56
	183	461.533	3.44516E+000	3.44515E+000	-3.62647E-004	...........	-327.56
	184	464.042	3.44516E+000	3.44517E+000	-3.66053E-004	...........	-327.56
	185	466.55	3.44516E+000	3.44515E+000	-3.64660E-004	...........	-327.56
	186	469.058	3.44516E+000	3.44517E+000	-3.64700E-004	...........	-327.56
	187	471.567	3.44516E+000	3.44516E+000	-3.62260E-004	...........	-327.56
	188	474.075	3.44516E+000	3.44515E+000	-3.62380E-004	...........	-327.56
	189	476.583	3.44516E+000	3.44515E+000	-3.63820E-004	...........	-327.56
	190	479.092	3.44516E+000	3.44514E+000	-3.61467E-004	...........	-327.56
	191	481.6	3.44515E+000	3.44517E+000	-3.62513E-004	...........	-327.56
	192	484.108	3.44515E+000	3.44516E+000	-3.63420E-004	...........	-327.56
	193	486.617	3.44515E+000	3.44514E+000	-3.60153E-004	...........	-327.56
	194	489.125	3.44515E+000	3.44513E+000	-3.58507E-004	...........	-327.56
	195	491.633	3.44515E+000	3.44514E+000	-3.65173E-004	...........	-327.56
	196	494.142	3.44515E+000	3.44513E+000	-3.66693E-004	...........	-327.56
	197	496.65	3.44514E+000	3.44514E+000	-3.61287E-004	...........	-327.56
	198	499.158	3.44514E+000	3.44515E+000	-3.62467E-004	...........	-327.56
	199	501.667	3.44514E+000	3.44514E+000	-3.66180E-004	...........	-327.56
	200	504.175	3.44514E+000	3.44514E+000	-3.64460E-004	...........	-327.56
	201	506.683	3.44514E+000	3.44514E+000	-3.56553E-004	...........	-327.56
	202	509.192	3.44514E+000	3.44513E+000	-3.58860E-004	...........	-327.56
	203	511.7	3.44514E+000	3.44515E+000	-3.61107E-004	...........	-327.56
	204	514.208	3.44514E+000	3.44514E+000	-3.62473E-004	...........	-327.56
	205	516.717	3.44514E+000	3.44514E+000	-3.62233E-004	...........	-327.56
	206	519.225	3.44514E+000	3.44515E+000	-3.65660E-004	...........	-327.56
	207	521.733	3.44514E+000	3.44514E+000	-3.66853E-004	...........	-327.56
	208	524.242	3.44514E+000	3.44515E+000	-3.61680E-004	...........	-327.56
	209	526.75	3.44514E+000	3.44515E+000	-3.64213E-004	...........	-327.56
	210	529.258	3.44515E+000	3.44515E+000	-3.59027E-004	...........	-327.56
	211	531.767	3.44515E+000	3.44516E+000	-3.61173E-004	...........	-327.56
	212	534.275	3.44515E+000	3.44515E+000	-3.62647E-004	...........	-327.56
	213	536.783	3.44515E+000	3.44514E+000	-3.59480E-004	...........	-327.56
	214	539.292	3.44515E+000	3.44514E+000	-3.61640E-004	...........	-327.56
	215	541.8	3.44515E+000	3.44515E+000	-3.60340E-004	...........	-327.56
	216	544.308	3.44515E+000	3.44513E+000	-3.56120E-004	...........	-327.56
	217	546.817	3.44514E+000	3.44516E+000	-3.61100E-004	...........	-327.56
	218	549.325	3.44514E+000	3.44515E+000	-3.61560E-004	...........	-327.56
	219	551.833	3.44514E+000	3.44516E+000	-3.60407E-004	...........	-327.56
	220	554.342	3.44515E+000	3.44515E+000	-3.60967E-004	...........	-327.56
	221	556.85	3.44515E+000	3.44515E+000	-3.61120E-004	...........	-327.56
	222	559.358	3.44515E+000	3.44516E+000	-3.58533E-004	...........	-327.56
	223	561.867	3.44515E+000	3.44514E+000	-3.60453E-004	...........	-327.56
	224	564.375	3.44515E+000	3.44517E+000	-3.68140E-004	...........	-327.56
	225	566.883	3.44515E+000	3.44515E+000	-3.61927E-004	...........	-327.56
	226	569.392	3.44515E+000	3.44515E+000	-3.66433E-004	...........	-327.56
	227	571.9	3.44515E+000	3.44514E+000	-3.66833E-004	...........	-327.56
	228	574.408	3.44515E+000	3.44516E+000	-3.69093E-004	...........	-327.56
	229	576.917	3.44515E+000	3.44514E+000	-3.64687E-004	...........	-327.56
	230	579.425	3.44515E+000	3.44514E+000	-3.63340E-004	...........	-327.56
	231	581.933	3.44515E+000	3.44515E+000	-3.60333E-004	...........	-327.56
	232	584.442	3.44515E+000	3.44515E+000	-3.64053E-004	...........	-327.56
	233	586.95	3.44515E+000	3.44514E+000	-3.62680E-004	...........	-327.56
	234	589.458	3.44515E+000	3.44515E+000	-3.65547E-004	...........	-327.56
	235	591.967	3.44515E+000	3.44516E+000	-3.70087E-004	...........	-327.56
	236	594.475	3.44515E+000	3.44515E+000	-3.66313E-004	...........	-327.56
	237	596.983	3.44515E+000	3.44514E+000	-3.65740E-004	...........	-327.56
	238	599.492	3.44515E+000	3.44513E+000	-3.65820E-004	...........	-327.56
	239	602	3.44515E+000	3.44515E+000	-3.67700E-004	...........	-327.56
	240	604.508	3.44514E+000	3.44515E+000	-3.67453E-004	...........	-327.56
	241	607.017	3.44514E+000	3.44515E+000	-3.65373E-004	...........	-327.56
	242	609.525	3.44515E+000	3.44514E+000	-3.69960E-004	...........	-327.56
	243	612.033	3.44515E+000	3.44515E+000	-3.68180E-004	...........	-327.56
	244	614.542	3.44515E+000	3.44514E+000	-3.67320E-004	...........	-327.56
	245	617.05	3.44515E+000	3.44514E+000	-3.66840E-004	...........	-327.56
	246	619.558	3.44514E+000	3.44514E+000	-3.64087E-004	...........	-327.56
	247	622.067	3.44514E+000	3.44514E+000	-3.66007E-004	...........	-327.56
	248	624.575	3.44514E+000	3.44516E+000	-3.66480E-004	...........	-327.56
	249	627.083	3.44514E+000	3.44515E+000	-3.63720E-004	...........	-327.56
	250	629.592	3.44515E+000	3.44514E+000	-3.65473E-004	...........	-327.56
	251	632.1	3.44515E+000	3.44514E+000	-3.67260E-004	...........	-327.56
	252	634.608	3.44515E+000	3.44514E+000	-3.67167E-004	...........	-327.56
	253	637.117	3.44514E+000	3.44514E+000	-3.63587E-004	...........	-327.56
	254	639.625	3.44514E+000	3.44514E+000	-3.66660E-004	...........	-327.56
	255	642.133	3.44514E+000	3.44516E+000	-3.66767E-004	...........	-327.56
	256	644.642	3.44514E+000	3.44514E+000	-3.66487E-004	...........	-327.56
	257	647.15	3.44514E+000	3.44515E+000	-3.66493E-004	...........	-327.56
	258	649.658	3.44514E+000	3.44515E+000	-3.68247E-004	...........	-327.56
	259	652.167	3.44515E+000	3.44513E+000	-3.65680E-004	...........	-327.56
	260	654.675	3.44514E+000	3.44515E+000	-3.66207E-004	...........	-327.56
	261	657.183	3.44514E+000	3.44515E+000	-3.70567E-004	...........	-327.56
	262	659.692	3.44514E+000	3.44514E+000	-3.67907E-004	...........	-327.56
	263	662.2	3.44514E+000	3.44514E+000	-3.65820E-004	...........	-327.56
	264	664.708	3.44514E+000	3.44515E+000	-3.70593E-004	...........	-327.56
	265	667.217	3.44514E+000	3.44515E+000	-3.62547E-004	...........	-327.56
	266	669.725	3.44514E+000	3.44515E+000	-3.65167E-004	...........	-327.56
	267	672.233	3.44515E+000	3.44515E+000	-3.64573E-004	...........	-327.56
	268	674.742	3.44515E+000	3.44515E+000	-3.62413E-004	...........	-327.56
	269	677.25	3.44515E+000	3.44513E+000	-3.61607E-004	...........	-327.56
	270	679.758	3.44515E+000	3.44514E+000	-3.61107E-004	...........	-327.56
	271	682.267	3.44514E+000	3.44517E+000	-3.67567E-004	...........	-327.56
	272	684.775	3.44514E+000	3.44514E+000	-3.68420E-004	...........	-327.56
	273	687.283	3.44515E+000	3.44515E+000	-3.66353E-004	...........	-327.56
	274	689.792	3.44515E+000	3.44516E+000	-3.65460E-004	...........	-327.56
	275	692.3	3.44515E+000	3.44514E+000	-3.66640E-004	...........	-327.56
	276	694.808	3.44515E+000	3.44514E+000	-3.65753E-004	...........	-327.56
	277	697.317	3.44515E+000	3.44515E+000	-3.66380E-004	...........	-327.56
	278	699.825	3.44515E+000	3.44514E+000	-3.66393E-004	...........	-327.56
	279	702.333	3.44515E+000	3.44514E+000	-3.69167E-004	...........	-327.56
	280	704.842	3.44515E+000	3.44513E+000	-3.66127E-004	...........	-327.56
	281	707.35	3.44514E+000	3.44514E+000	-3.62247E-004	...........	-327.56
	282	709.858	3.44514E+000	3.44515E+000	-3.63840E-004	...........	-327.56
	283	712.367	3.44514E+000	3.44514E+000	-3.64420E-004	...........	-327.56
	284	714.875	3.44514E+000	3.44514E+000	-3.63500E-004	...........	-327.56
	285	717.383	3.44514E+000	3.44514E+000	-3.65620E-004	...........	-327.56
	286	719.892	3.44514E+000	3.44516E+000	-3.68020E-004	...........	-327.56
	287	722.4	3.44514E+000	3.44513E+000	-3.61213E-004	...........	-327.56
	288	724.908	3.44514E+000	3.44516E+000	-3.63967E-004	...........	-327.56
	289	727.417	3.44515E+000	3.44514E+000	-3.64527E-004	...........	-327.56
	290	729.925	3.44515E+000	3.44513E+000	-3.66027E-004	...........	-327.56
	291	732.433	3.44515E+000	3.44515E+000	-3.65707E-004	...........	-327.56
	292	734.942	3.44514E+000	3.44514E+000	-3.62873E-004	...........	-327.56
	293	737.45	3.44514E+000	3.44514E+000	-3.60247E-004	...........	-327.56
	294	739.958	3.44514E+000	3.44515E+000	-3.63213E-004	...........	-327.56
	295	742.467	3.44514E+000	3.44514E+000	-3.64773E-004	...........	-327.56
	296	744.975	3.44514E+000	3.44514E+000	-3.62080E-004	...........	-327.56
	297	747.483	3.44514E+000	3.44515E+000	-3.61620E-004	...........	-327.56
	298	749.992	3.44514E+000	3.44513E+000	-3.64067E-004	...........	-327.56
	299	752.5	3.44514E+000	3.44515E+000	-3.64353E-004	...........	-327.56
	300	755.008	3.44514E+000	3.44516E+000	-3.61273E-004	...........	-327.56
	301	757.517	3.44514E+000	3.44514E+000	-3.60700E-004	...........	-327.56
	302	760.025	3.44514E+000	3.44513E+000	-3.64087E-004	...........	-327.56
	303	762.533	3.44515E+000	3.44516E+000	-3.64360E-004	...........	-327.56
	304	765.042	3.44515E+000	3.44515E+000	-3.64620E-004	...........	-327.56
	305	767.55	3.44515E+000	3.44515E+000	-3.65227E-004	...........	-327.56
	306	770.058	3.44515E+000	3.44514E+000	-3.62113E-004	...........	-327.56
	307	772.567	3.44515E+000	3.44513E+000	-3.66413E-004	...........	-327.56
	308	775.075	3.44515E+000	3.44515E+000	-3.68220E-004	...........	-327.56
	309	777.583	3.44514E+000	3.44514E+000	-3.64353E-004	...........	-327.56
	310	780.092	3.44514E+000	3.44515E+000	-3.59520E-004	...........	-327.56
	311	782.6	3.44514E+000	3.44515E+000	-3.67613E-004	...........	-327.56
	312	785.108	3.44514E+000	3.44516E+000	-3.63813E-004	...........	-327.56
	313	787.617	3.44515E+000	3.44516E+000	-3.68367E-004	...........	-327.56
	314	790.125	3.44515E+000	3.44515E+000	-3.64727E-004	...........	-327.56
	315	792.633	3.44515E+000	3.44515E+000	-3.65973E-004	...........	-327.56
	316	795.142	3.44515E+000	3.44514E+000	-3.63433E-004	...........	-327.56
	317	797.65	3.44515E+000	3.44516E+000	-3.63707E-004	...........	-327.56
	318	800.158	3.44515E+000	3.44514E+000	-3.69780E-004	...........	-327.56
	319	802.667	3.44515E+000	3.44514E+000	-3.67647E-004	...........	-327.56
	320	805.175	3.44515E+000	3.44514E+000	-3.65993E-004	...........	-327.56
	321	807.683	3.44514E+000	3.44514E+000	-3.66133E-004	...........	-327.56
	322	810.192	3.44514E+000	3.44515E+000	-3.64647E-004	...........	-327.56
	323	812.7	3.44514E+000	3.44514E+000	-3.64427E-004	...........	-327.56
	324	815.208	3.44514E+000	3.44513E+000	-3.62773E-004	...........	-327.56
	325	817.717	3.44514E+000	3.44514E+000	-3.68167E-004	...........	-327.56
	326	820.225	3.44514E+000	3.44514E+000	-3.64020E-004	...........	-327.56
	327	822.733	3.44514E+000	3.44515E+000	-3.66360E-004	...........	-327.56
	328	825.242	3.44514E+000	3.44516E+000	-3.65960E-004	...........	-327.56
	329	827.75	3.44515E+000	3.44518E+000	-3.65860E-004	...........	-327.56
	330	830.258	3.44515E+000	3.44516E+000	-3.65693E-004	...........	-327.56
	331	832.767	3.44516E+000	3.44517E+000	-3.67080E-004	...........	-327.56
	332	835.275	3.44516E+000	3.44515E+000	-3.63100E-004	...........	-327.56
	333	837.783	3.44516E+000	3.44513E+000	-3.59580E-004	...........	-327.56
	334	840.292	3.44516E+000	3.44513E+000	-3.58473E-004	...........	-327.56
	335	842.8	3.44515E+000	3.44514E+000	-3.56760E-004	...........	-327.56
	336	845.308	3.44514E+000	3.44515E+000	-3.58320E-004	...........	-327.56
	337	847.817	3.44514E+000	3.44515E+000	-3.60667E-004	...........	-327.56
	338	850.325	3.44514E+000	3.44515E+000	-3.60760E-004	...........	-327.56
	339	852.833	3.44514E+000	3.44514E+000	-3.61653E-004	...........	-327.56
	340	855.342	3.44515E+000	3.44514E+000	-3.61273E-004	...........	-327.56
	341	857.85	3.44515E+000	3.44515E+000	-3.64287E-004	...........	-327.56
	342	860.358	3.44515E+000	3.44516E+000	-3.67487E-004	...........	-327.56
	343	862.867	3.44515E+000	3.44514E+000	-3.65800E-004	...........	-327.56
	344	865.375	3.44515E+000	3.44515E+000	-3.63280E-004	...........	-327.56
	345	867.883	3.44515E+000	3.44515E+000	-3.61820E-004	...........	-327.56
	346	870.392	3.44515E+000	3.44515E+000	-3.63727E-004	...........	-327.56
	347	872.9	3.44515E+000	3.44516E+000	-3.65267E-004	...........	-327.56
	348	875.408	3.44515E+000	3.44514E+000	-3.64287E-004	...........	-327.56
	349	877.917	3.44515E+000	3.44514E+000	-3.57213E-004	...........	-327.56
	350	880.425	3.44515E+000	3.44514E+000	-3.59507E-004	...........	-327.56
	351	882.933	3.44515E+000	3.44513E+000	-3.59593E-004	...........	-327.56
	352	885.442	3.44514E+000	3.44514E+000	-3.61673E-004	...........	-327.56
	353	887.95	3.44514E+000	3.44514E+000	-3.65673E-004	...........	-327.56
	354	890.458	3.44514E+000	3.44514E+000	-3.63527E-004	...........	-327.56
	355	892.967	3.44514E+000	3.44514E+000	-3.66747E-004	...........	-327.56
	356	895.475	3.44514E+000	3.44515E+000	-3.65780E-004	...........	-327.56
	357	897.983	3.44514E+000	3.44516E+000	-3.65487E-004	...........	-327.56
	358	900.492	3.44514E+000	3.44514E+000	-3.65800E-004	...........	-327.56
	359	903	3.44515E+000	3.44515E+000	-3.68487E-004	...........	-327.56
	360	905.508	3.44515E+000	3.44516E+000	-3.69067E-004	...........	-327.56
	361	908.017	3.44515E+000	3.44516E+000	-3.68867E-004	...........	-327.56
	362	910.525	3.44515E+000	3.44516E+000	-3.66667E-004	...........	-327.56
	363	913.033	3.44516E+000	3.44515E+000	-3.66020E-004	...........	-327.56
	364	915.542	3.44516E+000	3.44517E+000	-3.66340E-004	...........	-327.56
	365	918.05	3.44516E+000	3.44515E+000	-3.68893E-004	...........	-327.56
	366	920.558	3.44516E+000	3.44514E+000	-3.62187E-004	...........	-327.56
	367	923.067	3.44516E+000	3.44514E+000	-3.63547E-004	...........	-327.56
	368	925.575	3.44515E+000	3.44515E+000	-3.62373E-004	...........	-327.56
	369	928.083	3.44515E+000	3.44514E+000	-3.64433E-004	...........	-327.56
	370	930.592	3.44515E+000	3.44515E+000	-3.67260E-004	...........	-327.56
	371	933.1	3.44514E+000	3.44513E+000	-3.64473E-004	...........	-327.56
	372	935.608	3.44514E+000	3.44514E+000	-3.66480E-004	...........	-327.56
	373	938.117	3.44514E+000	3.44514E+000	-3.66167E-004	...........	-327.56
	374	940.625	3.44514E+000	3.44514E+000	-3.64540E-004	...........	-327.56
	375	943.133	3.44514E+000	3.44515E+000	-3.64307E-004	...........	-327.56
	376	945.642	3.44514E+000	3.44515E+000	-3.62587E-004	...........	-327.56
	377	948.15	3.44514E+000	3.44516E+000	-3.62060E-004	...........	-327.56
	378	950.66	3.44515E+000	3.44513E+000	-3.64227E-004	...........	-327.56
	379	953.17	3.44515E+000	3.44515E+000	-3.65547E-004	...........	-327.56
	380	955.68	3.44515E+000	3.44515E+000	-3.65947E-004	...........	-327.56
	381	958.18	3.44515E+000	3.44516E+000	-3.64113E-004	...........	-327.56
	382	960.69	3.44515E+000	3.44515E+000	-3.61820E-004	...........	-327.56
	383	963.2	3.44515E+000	3.44516E+000	-3.67333E-004	...........	-327.56
	384	965.71	3.44515E+000	3.44515E+000	-3.66660E-004	...........	-327.56
	385	968.22	3.44515E+000	3.44514E+000	-3.60860E-004	...........	-327.56
	386	970.73	3.44515E+000	3.44516E+000	-3.63060E-004	...........	-327.56
	387	973.23	3.44515E+000	3.44517E+000	-3.61687E-004	...........	-327.56
	388	975.74	3.44515E+000	3.44517E+000	-3.59753E-004	...........	-327.56
	389	978.25	3.44516E+000	3.44516E+000	-3.59393E-004	...........	-327.56
	390	980.76	3.44516E+000	3.44517E+000	-3.60173E-004	...........	-327.56
	391	983.27	3.44517E+000	3.44517E+000	-3.60153E-004	...........	-327.56
	392	985.78	3.44517E+000	3.44516E+000	-3.61180E-004	...........	-327.56
	393	988.28	3.44517E+000	3.44516E+000	-3.59033E-004	...........	-327.56
	394	990.79	3.44517E+000	3.44519E+000	-3.58767E-004	...........	-327.56
	395	993.3	3.44517E+000	3.44517E+000	-3.54133E-004	...........	-327.56
	396	995.81	3.44517E+000	3.44517E+000	-3.59107E-004	...........	-327.56
	397	998.32	3.44517E+000	3.44517E+000	-3.62433E-004	...........	-327.56
	398	1000.83	3.44517E+000	3.44513E+000	-3.56867E-004	...........	-327.56
	399	1003.33	3.44517E+000	3.44514E+000	-3.59293E-004	...........	-327.56
	400	1005.84	3.44516E+000	3.44515E+000	-3.63187E-004	...........	-327.56
	401	1008.35	3.44515E+000	3.44515E+000	-3.59320E-004	...........	-327.56
	402	1010.86	3.44514E+000	3.44514E+000	-3.57720E-004	...........	-327.56
	403	1013.37	3.44514E+000	3.44514E+000	-3.60513E-004	...........	-327.56
	404	1015.88	3.44514E+000	3.44515E+000	-3.56413E-004	...........	-327.56
	405	1018.38	3.44514E+000	3.44515E+000	-3.59960E-004	...........	-327.56
	406	1020.89	3.44514E+000	3.44514E+000	-3.60927E-004	...........	-327.56
	407	1023.4	3.44515E+000	3.44514E+000	-3.61600E-004	...........	-327.56
	408	1025.91	3.44515E+000	3.44513E+000	-3.65467E-004	...........	-327.56
	409	1028.42	3.44514E+000	3.44513E+000	-3.58980E-004	...........	-327.56
	410	1030.93	3.44514E+000	3.44515E+000	-3.60560E-004	...........	-327.56
	411	1033.43	3.44514E+000	3.44514E+000	-3.65727E-004	...........	-327.56
	412	1035.94	3.44514E+000	3.44515E+000	-3.59967E-004	...........	-327.56
	413	1038.45	3.44514E+000	3.44515E+000	-3.61960E-004	...........	-327.56
	414	1040.96	3.44515E+000	3.44514E+000	-3.65173E-004	...........	-327.56
	415	1043.47	3.44515E+000	3.44515E+000	-3.66853E-004	...........	-327.56
	416	1045.98	3.44515E+000	3.44516E+000	-3.62367E-004	...........	-327.56
	417	1048.48	3.44515E+000	3.44515E+000	-3.57453E-004	...........	-327.56
	418	1050.99	3.44515E+000	3.44513E+000	-3.60047E-004	...........	-327.56
	419	1053.5	3.44515E+000	3.44516E+000	-3.59980E-004	...........	-327.56
	420	1056.01	3.44515E+000	3.44515E+000	-3.63260E-004	...........	-327.56
	421	1058.52	3.44515E+000	3.44515E+000	-3.61900E-004	...........	-327.56
	422	1061.03	3.44515E+000	3.44515E+000	-3.62900E-004	...........	-327.56
	423	1063.53	3.44515E+000	3.44516E+000	-3.60047E-004	...........	-327.56
	424	1066.04	3.44515E+000	3.44514E+000	-3.59973E-004	...........	-327.56
	425	1068.55	3.44515E+000	3.44514E+000	-3.61667E-004	...........	-327.56
	426	1071.06	3.44515E+000	3.44515E+000	-3.60593E-004	...........	-327.56
	427	1073.57	3.44515E+000	3.44515E+000	-3.61693E-004	...........	-327.56
	428	1076.08	3.44515E+000	3.44513E+000	-3.62053E-004	...........	-327.56
	429	1078.58	3.44515E+000	3.44515E+000	-3.65107E-004	...........	-327.56
	430	1081.09	3.44515E+000	3.44515E+000	-3.65100E-004	...........	-327.56
	431	1083.6	3.44515E+000	3.44514E+000	-3.68227E-004	...........	-327.56
	432	1086.11	3.44515E+000	3.44514E+000	-3.65160E-004	...........	-327.56
	433	1088.62	3.44515E+000	3.44514E+000	-3.60953E-004	...........	-327.56
	434	1091.13	3.44514E+000	3.44514E+000	-3.64187E-004	...........	-327.56
	435	1093.63	3.44514E+000	3.44515E+000	-3.60273E-004	...........	-327.56
	436	1096.14	3.44514E+000	3.44513E+000	-3.64140E-004	...........	-327.56
	437	1098.65	3.44514E+000	3.44515E+000	-3.68367E-004	...........	-327.56
	438	1101.16	3.44514E+000	3.44514E+000	-3.70387E-004	...........	-327.56
	439	1103.67	3.44514E+000	3.44515E+000	-3.68680E-004	...........	-327.56
	440	1106.18	3.44514E+000	3.44514E+000	-3.72273E-004	...........	-327.56
	441	1108.68	3.44514E+000	3.44518E+000	-3.62573E-004	...........	-327.56
	442	1111.19	3.44515E+000	3.44517E+000	-3.68000E-004	...........	-327.56
	443	1113.7	3.44515E+000	3.44516E+000	-3.61527E-004	...........	-327.56
	444	1116.21	3.44516E+000	3.44516E+000	-3.66860E-004	...........	-327.56
	445	1118.72	3.44516E+000	3.44517E+000	-3.61740E-004	...........	-327.56
	446	1121.23	3.44517E+000	3.44514E+000	-3.63707E-004	...........	-327.56
	447	1123.73	3.44516E+000	3.44514E+000	-3.62847E-004	...........	-327.56
	448	1126.24	3.44516E+000	3.44515E+000	-3.59200E-004	...........	-327.56
	449	1128.75	3.44515E+000	3.44514E+000	-3.58653E-004	...........	-327.56
	450	1131.26	3.44515E+000	3.44513E+000	-3.60907E-004	...........	-327.56
	451	1133.77	3.44514E+000	3.44515E+000	-3.65107E-004	...........	-327.56
	452	1136.28	3.44514E+000	3.44515E+000	-3.58573E-004	...........	-327.56
	453	1138.78	3.44514E+000	3.44516E+000	-3.64340E-004	...........	-327.56
	454	1141.29	3.44515E+000	3.44518E+000	-3.62720E-004	...........	-327.56
	455	1143.8	3.44515E+000	3.44517E+000	-3.65527E-004	...........	-327.56
	456	1146.31	3.44516E+000	3.44517E+000	-3.64993E-004	...........	-327.56
	457	1148.82	3.44517E+000	3.44516E+000	-3.64400E-004	...........	-327.56
	458	1151.33	3.44517E+000	3.44516E+000	-3.64993E-004	...........	-327.56
	459	1153.83	3.44517E+000	3.44517E+000	-3.65967E-004	...........	-327.56
	460	1156.34	3.44517E+000	3.44518E+000	-3.61667E-004	...........	-327.56
	461	1158.85	3.44517E+000	3.44516E+000	-3.58087E-004	...........	-327.56
	462	1161.36	3.44517E+000	3.44517E+000	-3.60313E-004	...........	-327.56
	463	1163.87	3.44517E+000	3.44516E+000	-3.59133E-004	...........	-327.56
	464	1166.38	3.44516E+000	3.44517E+000	-3.60020E-004	...........	-327.56
	465	1168.88	3.44516E+000	3.44517E+000	-3.64873E-004	...........	-327.56
	466	1171.39	3.44516E+000	3.44518E+000	-3.62520E-004	...........	-327.56
	467	1173.9	3.44517E+000	3.44519E+000	-3.65320E-004	...........	-327.56
	468	1176.41	3.44517E+000	3.44516E+000	-3.56587E-004	...........	-327.56
	469	1178.92	3.44518E+000	3.44518E+000	-3.60280E-004	...........	-327.56
	470	1181.43	3.44518E+000	3.44516E+000	-3.61440E-004	...........	-327.56
	471	1183.93	3.44517E+000	3.44515E+000	-3.62760E-004	...........	-327.56
	472	1186.44	3.44517E+000	3.44514E+000	-3.58460E-004	...........	-327.56
	473	1188.95	3.44516E+000	3.44513E+000	-3.66360E-004	...........	-327.56
	474	1191.46	3.44515E+000	3.44514E+000	-3.59020E-004	...........	-327.56
	475	1193.97	3.44514E+000	3.44514E+000	-3.58113E-004	...........	-327.56
	476	1196.48	3.44514E+000	3.44516E+000	-3.62640E-004	...........	-327.56
	477	1198.98	3.44514E+000	3.44514E+000	-3.58820E-004	...........	-327.56
	478	1201.49	3.44514E+000	3.44515E+000	-3.61973E-004	...........	-327.56
	479	1204	3.44515E+000	3.44514E+000	-3.60767E-004	...........	-327.56
	480	1206.51	3.44515E+000	3.44514E+000	-3.66840E-004	...........	-327.56
	481	1209.02	3.44515E+000	3.44515E+000	-3.65800E-004	...........	-327.56
	482	1211.53	3.44514E+000	3.44514E+000	-3.64853E-004	...........	-327.56
	483	1214.03	3.44514E+000	3.44515E+000	-3.63333E-004	...........	-327.56
	484	1216.54	3.44514E+000	3.44517E+000	-3.65373E-004	...........	-327.56
	485	1219.05	3.44515E+000	3.44517E+000	-3.63287E-004	...........	-327.56
	486	1221.56	3.44515E+000	3.44515E+000	-3.65733E-004	...........	-327.56
	487	1224.07	3.44516E+000	3.44514E+000	-3.58660E-004	...........	-327.56
	488	1226.58	3.44516E+000	3.44516E+000	-3.62540E-004	...........	-327.56
	489	1229.08	3.44515E+000	3.44516E+000	-3.61113E-004	...........	-327.56
	490	1231.59	3.44515E+000	3.44515E+000	-3.59113E-004	...........	-327.56
	491	1234.1	3.44515E+000	3.44514E+000	-3.62840E-004	...........	-327.56
	492	1236.61	3.44515E+000	3.44513E+000	-3.61787E-004	...........	-327.56
	493	1239.12	3.44515E+000	3.44514E+000	-3.61913E-004	...........	-327.56
	494	1241.63	3.44515E+000	3.44515E+000	-3.66620E-004	...........	-327.56
	495	1244.13	3.44514E+000	3.44514E+000	-3.67680E-004	...........	-327.56
	496	1246.64	3.44514E+000	3.44513E+000	-3.65173E-004	...........	-327.56
	497	1249.15	3.44514E+000	3.44514E+000	-3.69153E-004	...........	-327.56
	498	1251.66	3.44514E+000	3.44514E+000	-3.67307E-004	...........	-327.56
	499	1254.17	3.44514E+000	3.44517E+000	-3.64800E-004	...........	-327.56
	500	1256.68	3.44514E+000	3.44515E+000	-3.69600E-004	...........	-327.56
	501	1259.18	3.44515E+000	3.44516E+000	-3.69853E-004	...........	-327.56
	502	1261.69	3.44515E+000	3.44515E+000	-3.67607E-004	...........	-327.56
	503	1264.2	3.44515E+000	3.44515E+000	-3.70533E-004	...........	-327.56
	504	1266.71	3.44515E+000	3.44517E+000	-3.70660E-004	...........	-327.56
	505	1269.22	3.44516E+000	3.44516E+000	-3.72353E-004	...........	-327.56
	506	1271.73	3.44516E+000	3.44516E+000	-3.67147E-004	...........	-327.56
	507	1274.23	3.44516E+000	3.44517E+000	-3.68140E-004	...........	-327.56
	508	1276.74	3.44516E+000	3.44518E+000	-3.70153E-004	...........	-327.56
	509	1279.25	3.44516E+000	3.44517E+000	-3.67853E-004	...........	-327.56
	510	1281.76	3.44517E+000	3.44516E+000	-3.70960E-004	...........	-327.56
	511	1284.27	3.44517E+000	3.44517E+000	-3.68933E-004	...........	-327.56
	512	1286.78	3.44517E+000	3.44518E+000	-3.67227E-004	...........	-327.56
	513	1289.28	3.44517E+000	3.44515E+000	-3.64587E-004	...........	-327.56
	514	1291.79	3.44517E+000	3.44515E+000	-3.67787E-004	...........	-327.56
	515	1294.3	3.44517E+000	3.44515E+000	-3.68707E-004	...........	-327.56
	516	1296.81	3.44516E+000	3.44514E+000	-3.66927E-004	...........	-327.56
	517	1299.32	3.44515E+000	3.44516E+000	-3.68360E-004	...........	-327.56
	518	1301.83	3.44515E+000	3.44514E+000	-3.65587E-004	...........	-327.56
	519	1304.33	3.44515E+000	3.44515E+000	-3.71187E-004	...........	-327.56
	520	1306.84	3.44515E+000	3.44516E+000	-3.65300E-004	...........	-327.56
	521	1309.35	3.44515E+000	3.44515E+000	-3.67533E-004	...........	-327.56
	522	1311.86	3.44515E+000	3.44514E+000	-3.67647E-004	...........	-327.56
	523	1314.37	3.44515E+000	3.44515E+000	-3.66453E-004	...........	-327.56
	524	1316.88	3.44515E+000	3.44515E+000	-3.68480E-004	...........	-327.56
	525	1319.38	3.44515E+000	3.44516E+000	-3.70053E-004	...........	-327.56
	526	1321.89	3.44515E+000	3.44513E+000	-3.67013E-004	...........	-327.56
	527	1324.4	3.44515E+000	3.44515E+000	-3.67580E-004	...........	-327.56
	528	1326.91	3.44515E+000	3.44514E+000	-3.66460E-004	...........	-327.56
	529	1329.42	3.44514E+000	3.44514E+000	-3.65987E-004	...........	-327.56
	530	1331.93	3.44514E+000	3.44514E+000	-3.65960E-004	...........	-327.56
	531	1334.43	3.44514E+000	3.44513E+000	-3.64533E-004	...........	-327.56
	532	1336.94	3.44514E+000	3.44515E+000	-3.67727E-004	...........	-327.56
	533	1339.45	3.44514E+000	3.44515E+000	-3.69193E-004	...........	-327.56
	534	1341.96	3.44514E+000	3.44515E+000	-3.68893E-004	...........	-327.56
	535	1344.47	3.44514E+000	3.44512E+000	-3.66527E-004	...........	-327.56
	536	1346.98	3.44514E+000	3.44513E+000	-3.67893E-004	...........	-327.56
	537	1349.48	3.44514E+000	3.44516E+000	-3.68927E-004	...........	-327.56
	538	1351.99	3.44514E+000	3.44515E+000	-3.71027E-004	...........	-327.56
	539	1354.5	3.44514E+000	3.44515E+000	-3.69287E-004	...........	-327.56
	540	1357.01	3.44515E+000	3.44514E+000	-3.73087E-004	...........	-327.56
	541	1359.52	3.44515E+000	3.44517E+000	-3.73720E-004	...........	-327.56
	542	1362.03	3.44515E+000	3.44515E+000	-3.68547E-004	...........	-327.56
	543	1364.53	3.44515E+000	3.44514E+000	-3.70093E-004	...........	-327.56
	544	1367.04	3.44515E+000	3.44516E+000	-3.73533E-004	...........	-327.56
	545	1369.55	3.44515E+000	3.44515E+000	-3.73913E-004	...........	-327.56
	546	1372.06	3.44515E+000	3.44514E+000	-3.74860E-004	...........	-327.56
	547	1374.57	3.44515E+000	3.44515E+000	-3.75453E-004	...........	-327.56
	548	1377.08	3.44515E+000	3.44514E+000	-3.75600E-004	...........	-327.56
	549	1379.58	3.44515E+000	3.44515E+000	-3.68480E-004	...........	-327.56
	550	1382.09	3.44515E+000	3.44518E+000	-3.72893E-004	...........	-327.56
	551	1384.6	3.44515E+000	3.44517E+000	-3.76607E-004	...........	-327.56
	552	1387.11	3.44516E+000	3.44513E+000	-3.73433E-004	...........	-327.56
	553	1389.62	3.44516E+000	3.44515E+000	-3.70093E-004	...........	-327.56
	554	1392.13	3.44516E+000	3.44515E+000	-3.75060E-004	...........	-327.56
	555	1394.63	3.44515E+000	3.44514E+000	-3.70380E-004	...........	-327.56
	556	1397.14	3.44515E+000	3.44516E+000	-3.69047E-004	...........	-327.56
	557	1399.65	3.44515E+000	3.44514E+000	-3.70093E-004	...........	-327.56
	558	1402.16	3.44515E+000	3.44515E+000	-3.72147E-004	...........	-327.56
	559	1404.67	3.44515E+000	3.44515E+000	-3.69827E-004	...........	-327.56
	560	1407.18	3.44515E+000	3.44514E+000	-3.68787E-004	...........	-327.56
	561	1409.68	3.44515E+000	3.44513E+000	-3.71947E-004	...........	-327.56
	562	1412.19	3.44514E+000	3.44513E+000	-3.69193E-004	...........	-327.56
	563	1414.7	3.44514E+000	3.44514E+000	-3.66233E-004	...........	-327.56
	564	1417.21	3.44514E+000	3.44513E+000	-3.69873E-004	...........	-327.56
	565	1419.72	3.44514E+000	3.44517E+000	-3.71447E-004	...........	-327.56
	566	1422.23	3.44514E+000	3.44519E+000	-3.73113E-004	...........	-327.56
	567	1424.73	3.44515E+000	3.44516E+000	-3.72867E-004	...........	-327.56
	568	1427.24	3.44516E+000	3.44517E+000	-3.71487E-004	...........	-327.56
	569	1429.75	3.44517E+000	3.44518E+000	-3.71773E-004	...........	-327.56
	570	1432.26	3.44517E+000	3.44517E+000	-3.72193E-004	...........	-327.56
	571	1434.77	3.44517E+000	3.44519E+000	-3.65660E-004	...........	-327.56
	572	1437.28	3.44517E+000	3.44514E+000	-3.68393E-004	...........	-327.56
	573	1439.78	3.44517E+000	3.44515E+000	-3.68273E-004	...........	-327.56
	574	1442.29	3.44517E+000	3.44514E+000	-3.66967E-004	...........	-327.56
	575	1444.8	3.44516E+000	3.44515E+000	-3.66707E-004	...........	-327.56
	576	1447.31	3.44515E+000	3.44515E+000	-3.70360E-004	...........	-327.56
	577	1449.82	3.44515E+000	3.44515E+000	-3.66973E-004	...........	-327.56
	578	1452.33	3.44515E+000	3.44516E+000	-3.69007E-004	...........	-327.56
	579	1454.83	3.44515E+000	3.44517E+000	-3.67660E-004	...........	-327.56
	580	1457.34	3.44515E+000	3.44517E+000	-3.70673E-004	...........	-327.56
	581	1459.85	3.44516E+000	3.44513E+000	-3.67647E-004	...........	-327.56
	582	1462.36	3.44516E+000	3.44514E+000	-3.70260E-004	...........	-327.56
	583	1464.87	3.44516E+000	3.44514E+000	-3.67787E-004	...........	-327.56
	584	1467.38	3.44515E+000	3.44516E+000	-3.70393E-004	...........	-327.56
	585	1469.88	3.44514E+000	3.44512E+000	-3.65473E-004	...........	-327.56
	586	1472.39	3.44514E+000	3.44513E+000	-3.67420E-004	...........	-327.56
	587	1474.9	3.44514E+000	3.44515E+000	-3.68093E-004	...........	-327.56
	588	1477.41	3.44514E+000	3.44515E+000	-3.68660E-004	...........	-327.56
	589	1479.92	3.44514E+000	3.44514E+000	-3.71893E-004	...........	-327.56
	590	1482.43	3.44514E+000	3.44515E+000	-3.64013E-004	...........	-327.56
	591	1484.93	3.44514E+000	3.44515E+000	-3.69660E-004	...........	-327.56
	592	1487.44	3.44515E+000	3.44515E+000	-3.70047E-004	...........	-327.56
	593	1489.95	3.44515E+000	3.44514E+000	-3.75020E-004	...........	-327.56
	594	1492.46	3.44515E+000	3.44514E+000	-3.73653E-004	...........	-327.56
	595	1494.97	3.44515E+000	3.44514E+000	-3.74227E-004	...........	-327.56
	596	1497.48	3.44515E+000	3.44515E+000	-3.74927E-004	...........	-327.56
	597	1499.98	3.44514E+000	3.44514E+000	-3.74373E-004	...........	-327.56
	598	1502.49	3.44514E+000	3.44515E+000	-3.73367E-004	...........	-327.56
	599	1505	3.44514E+000	3.44514E+000	-3.68933E-004	...........	-327.56
	600	1507.51	3.44514E+000	3.44516E+000	-3.69647E-004	...........	-327.56
	601	1510.02	3.44515E+000	3.44515E+000	-3.65367E-004	...........	-327.56
	602	1512.53	3.44515E+000	3.44515E+000	-3.70647E-004	...........	-327.56
	603	1515.03	3.44515E+000	3.44516E+000	-3.67667E-004	...........	-327.56
	604	1517.54	3.44515E+000	3.44513E+000	-3.68040E-004	...........	-327.56
	605	1520.05	3.44515E+000	3.44514E+000	-3.68753E-004	...........	-327.56
	606	1522.56	3.44515E+000	3.44515E+000	-3.69840E-004	...........	-327.56
	607	1525.07	3.44514E+000	3.44516E+000	-3.70920E-004	...........	-327.56
	608	1527.58	3.44514E+000	3.44514E+000	-3.66613E-004	...........	-327.56
	609	1530.08	3.44515E+000	3.44515E+000	-3.67300E-004	...........	-327.56
	610	1532.59	3.44515E+000	3.44514E+000	-3.72107E-004	...........	-327.56
	611	1535.1	3.44515E+000	3.44513E+000	-3.64980E-004	...........	-327.56
	612	1537.61	3.44514E+000	3.44514E+000	-3.68393E-004	...........	-327.56
	613	1540.12	3.44514E+000	3.44513E+000	-3.73260E-004	...........	-327.56
	614	1542.63	3.44514E+000	3.44516E+000	-3.77027E-004	...........	-327.56
	615	1545.13	3.44514E+000	3.44514E+000	-3.73853E-004	...........	-327.56
	616	1547.64	3.44514E+000	3.44514E+000	-3.68513E-004	...........	-327.56
	617	1550.15	3.44514E+000	3.44516E+000	-3.73767E-004	...........	-327.56
	618	1552.66	3.44515E+000	3.44514E+000	-3.65433E-004	...........	-327.56
	619	1555.17	3.44515E+000	3.44514E+000	-3.70220E-004	...........	-327.56
	620	1557.68	3.44515E+000	3.44514E+000	-3.67827E-004	...........	-327.56
	621	1560.18	3.44515E+000	3.44515E+000	-3.67027E-004	...........	-327.56
	622	1562.69	3.44514E+000	3.44516E+000	-3.62620E-004	...........	-327.56
	623	1565.2	3.44514E+000	3.44514E+000	-3.61407E-004	...........	-327.56
	624	1567.71	3.44515E+000	3.44515E+000	-3.71200E-004	...........	-327.56
	625	1570.22	3.44515E+000	3.44514E+000	-3.66860E-004	...........	-327.56
	626	1572.73	3.44515E+000	3.44514E+000	-3.68267E-004	...........	-327.56
	627	1575.23	3.44515E+000	3.44515E+000	-3.67200E-004	...........	-327.56
	628	1577.74	3.44515E+000	3.44514E+000	-3.67867E-004	...........	-327.56
	629	1580.25	3.44514E+000	3.44513E+000	-3.65000E-004	...........	-327.56
	630	1582.76	3.44514E+000	3.44515E+000	-3.65467E-004	...........	-327.56
	631	1585.27	3.44514E+000	3.44514E+000	-3.63047E-004	...........	-327.56
	632	1587.78	3.44514E+000	3.44516E+000	-3.67333E-004	...........	-327.56
	633	1590.28	3.44514E+000	3.44515E+000	-3.68093E-004	...........	-327.56
	634	1592.79	3.44515E+000	3.44514E+000	-3.67413E-004	...........	-327.56
	635	1595.3	3.44515E+000	3.44514E+000	-3.67620E-004	...........	-327.56
	636	1597.81	3.44515E+000	3.44514E+000	-3.68313E-004	...........	-327.56
	637	1600.32	3.44515E+000	3.44515E+000	-3.65740E-004	...........	-327.56
	638	1602.83	3.44515E+000	3.44515E+000	-3.65333E-004	...........	-327.56
	639	1605.33	3.44515E+000	3.44514E+000	-3.68920E-004	...........	-327.56
	640	1607.84	3.44515E+000	3.44514E+000	-3.67920E-004	...........	-327.56
	641	1610.35	3.44515E+000	3.44514E+000	-3.66287E-004	...........	-327.56
	642	1612.86	3.44515E+000	3.44515E+000	-3.71053E-004	...........	-327.56
	643	1615.37	3.44515E+000	3.44515E+000	-3.70613E-004	...........	-327.56
	644	1617.88	3.44515E+000	3.44515E+000	-3.68940E-004	...........	-327.56
	645	1620.38	3.44515E+000	3.44515E+000	-3.66973E-004	...........	-327.56
	646	1622.89	3.44515E+000	3.44515E+000	-3.66780E-004	...........	-327.56
	647	1625.4	3.44515E+000	3.44516E+000	-3.62600E-004	...........	-327.56
	648	1627.91	3.44515E+000	3.44515E+000	-3.68473E-004	...........	-327.56
	649	1630.42	3.44515E+000	3.44515E+000	-3.64367E-004	...........	-327.56
	650	1632.93	3.44515E+000	3.44515E+000	-3.68440E-004	...........	-327.56
	651	1635.43	3.44515E+000	3.44516E+000	-3.68327E-004	...........	-327.56
	652	1637.94	3.44515E+000	3.44515E+000	-3.65300E-004	...........	-327.56
	653	1640.45	3.44515E+000	3.44514E+000	-3.67747E-004	...........	-327.56
	654	1642.96	3.44515E+000	3.44515E+000	-3.66487E-004	...........	-327.56
	655	1645.47	3.44515E+000	3.44515E+000	-3.65200E-004	...........	-327.56
	656	1647.98	3.44515E+000	3.44515E+000	-3.63073E-004	...........	-327.56
	657	1650.48	3.44515E+000	3.44515E+000	-3.69467E-004	...........	-327.56
	658	1652.99	3.44515E+000	3.44514E+000	-3.66840E-004	...........	-327.56
	659	1655.5	3.44515E+000	3.44514E+000	-3.61947E-004	...........	-327.56
	660	1658.01	3.44515E+000	3.44517E+000	-3.69380E-004	...........	-327.56
	661	1660.52	3.44515E+000	3.44514E+000	-3.67887E-004	...........	-327.56
	662	1663.03	3.44515E+000	3.44515E+000	-3.72033E-004	...........	-327.56
	663	1665.53	3.44515E+000	3.44516E+000	-3.66993E-004	...........	-327.56
	664	1668.04	3.44515E+000	3.44514E+000	-3.61693E-004	...........	-327.56
	665	1670.55	3.44515E+000	3.44516E+000	-3.64627E-004	...........	-327.56
	666	1673.06	3.44515E+000	3.44515E+000	-3.66947E-004	...........	-327.56
	667	1675.57	3.44515E+000	3.44514E+000	-3.65987E-004	...........	-327.56
	668	1678.08	3.44515E+000	3.44514E+000	-3.67440E-004	...........	-327.56
	669	1680.58	3.44515E+000	3.44517E+000	-3.67787E-004	...........	-327.56
	670	1683.09	3.44515E+000	3.44515E+000	-3.69707E-004	...........	-327.56
	671	1685.6	3.44515E+000	3.44516E+000	-3.65240E-004	...........	-327.56
	672	1688.11	3.44515E+000	3.44516E+000	-3.74007E-004	...........	-327.56
	673	1690.62	3.44516E+000	3.44514E+000	-3.67147E-004	...........	-327.56
	674	1693.13	3.44516E+000	3.44514E+000	-3.71520E-004	...........	-327.56
	675	1695.63	3.44515E+000	3.44515E+000	-3.69053E-004	...........	-327.56
	676	1698.14	3.44515E+000	3.44514E+000	-3.69187E-004	...........	-327.56
	677	1700.65	3.44515E+000	3.44515E+000	-3.69227E-004	...........	-327.56
	678	1703.16	3.44515E+000	3.44515E+000	-3.65780E-004	...........	-327.56
	679	1705.67	3.44515E+000	3.44515E+000	-3.68127E-004	...........	-327.56
	680	1708.18	3.44515E+000	3.44514E+000	-3.71240E-004	...........	-327.56
	681	1710.68	3.44515E+000	3.44514E+000	-3.68247E-004	...........	-327.56
	682	1713.19	3.44515E+000	3.44516E+000	-3.68147E-004	...........	-327.56
	683	1715.7	3.44515E+000	3.44515E+000	-3.69707E-004	...........	-327.56
	684	1718.21	3.44515E+000	3.44514E+000	-3.67120E-004	...........	-327.56
	685	1720.72	3.44515E+000	3.44514E+000	-3.61173E-004	...........	-327.56
	686	1723.23	3.44515E+000	3.44514E+000	-3.66813E-004	...........	-327.56
	687	1725.73	3.44515E+000	3.44516E+000	-3.61000E-004	...........	-327.56
	688	1728.24	3.44515E+000	3.44515E+000	-3.64633E-004	...........	-327.56
	689	1730.75	3.44515E+000	3.44514E+000	-3.67193E-004	...........	-327.56
	690	1733.26	3.44515E+000	3.44514E+000	-3.70107E-004	...........	-327.56
	691	1735.77	3.44515E+000	3.44516E+000	-3.70560E-004	...........	-327.56
	692	1738.28	3.44515E+000	3.44515E+000	-3.68440E-004	...........	-327.56
	693	1740.78	3.44515E+000	3.44515E+000	-3.69127E-004	...........	-327.56
	694	1743.29	3.44515E+000	3.44514E+000	-3.67720E-004	...........	-327.56
	695	1745.8	3.44515E+000	3.44515E+000	-3.70400E-004	...........	-327.56
	696	1748.31	3.44515E+000	3.44516E+000	-3.64980E-004	...........	-327.56
	697	1750.82	3.44515E+000	3.44515E+000	-3.67853E-004	...........	-327.56
	698	1753.33	3.44515E+000	3.44514E+000	-3.66853E-004	...........	-327.56
	699	1755.83	3.44515E+000	3.44514E+000	-3.69973E-004	...........	-327.56
	700	1758.34	3.44515E+000	3.44515E+000	-3.68500E-004	...........	-327.56
	701	1760.85	3.44515E+000	3.44514E+000	-3.69320E-004	...........	-327.56
	702	1763.36	3.44514E+000	3.44515E+000	-3.67160E-004	...........	-327.56
	703	1765.87	3.44514E+000	3.44516E+000	-3.69347E-004	...........	-327.56
	704	1768.38	3.44515E+000	3.44515E+000	-3.68613E-004	...........	-327.56
	705	1770.88	3.44515E+000	3.44514E+000	-3.66327E-004	...........	-327.56
	706	1773.39	3.44515E+000	3.44514E+000	-3.66900E-004	...........	-327.56
	707	1775.9	3.44515E+000	3.44514E+000	-3.68780E-004	...........	-327.56
	708	1778.41	3.44515E+000	3.44515E+000	-3.63327E-004	...........	-327.56
	709	1780.92	3.44515E+000	3.44514E+000	-3.67213E-004	...........	-327.56
	710	1783.43	3.44515E+000	3.44516E+000	-3.70053E-004	...........	-327.56
	711	1785.93	3.44515E+000	3.44516E+000	-3.65907E-004	...........	-327.56
	712	1788.44	3.44515E+000	3.44514E+000	-3.65353E-004	...........	-327.56
	713	1790.95	3.44515E+000	3.44513E+000	-3.65920E-004	...........	-327.56
	714	1793.46	3.44515E+000	3.44515E+000	-3.70820E-004	...........	-327.56
	715	1795.97	3.44515E+000	3.44513E+000	-3.71213E-004	...........	-327.56
	716	1798.48	3.44514E+000	3.44515E+000	-3.70700E-004	...........	-327.56
	717	1800.98	3.44514E+000	3.44514E+000	-3.75187E-004	...........	-327.56
EOC	QUANT	3.445142	Open Circuit (V)
PSTATMODEL	IQUANT	5	Pstat Model
PSTATSECTION	LABEL	REF3000-51199	Pstat Section
PSTATSERIALNO	LABEL	51199	Pstat Serial Number
CTRLMODE	IQUANT	1	Control Mode
ELECTROMETER	IQUANT	0	RE=0 or CS=1
IESTAB	IQUANT	0	I/E Stability
CASPEED	IQUANT	3	Control Amp Speed
CONVENTION	IQUANT	1	Current Convention
ICHRANGE	IQUANT	2	Ich Range
ICHRANGEMODE	TOGGLE	F	Ich Auto Range
ICHOFFSETENABLE	TOGGLE	T	Ich Offset Enable
ICHOFFSET	QUANT	0	Ich Offset (V)
ICHFILTER	IQUANT	3	Ich Filter
VCHRANGE	IQUANT	2	Vch Range
VCHRANGEMODE	TOGGLE	F	Vch Auto Range
VCHOFFSETENABLE	TOGGLE	T	Vch Offset Enable
VCHOFFSET	QUANT	0	Vch Offset (V)
VCHFILTER	IQUANT	3	Vch Filter
ACHRANGE	IQUANT	2	Ach Range
ACHOFFSETENABLE	TOGGLE	F	Ach Offset Enable
ACHOFFSET	QUANT	0	Ach Offset (V)
ACHFILTER	IQUANT	1	Ach Filter
IERANGELOWERLIMIT	IQUANT	2	I/E Range Lower Limit
IERANGEMODE	TOGGLE	F	I/E AutoRange
IERANGE	IQUANT	12	I/E Range
POSFEEDENABLE	TOGGLE	F	Positive Feedback IR Comp
POSFEEDRESISTANCE	QUANT	0	Positive Feedback Resistance (ohm)
ACHSELECT	IQUANT	4	Ach Select
SENSECABLEID	IQUANT	14	Sense Cable ID
PWRCABLEID	IQUANT	7	Power Cable ID
DCCALDATE	LABEL	1/28/2026	DC Calibration Date
ACCALDATE	LABEL	1/28/2026	AC Calibration Date
THERMOSELECT	IQUANT	1	Thermo Select
FRAMEWORKVERSION	LABEL	7.11.0	Framework Version
INSTRUMENTVERSION	LABEL	5.20	Instrument Version
COMMVERSION	LABEL	5.10	Communications Version
CPUPLDVERSION	LABEL	6.00	CPU PLD Version
CTRLPLDVERSION	LABEL	3.21	CTRL PLD Version
PSTATPLDVERSION	LABEL	0.00	PSTAT PLD Version
COMPLIANCEVOLTAGE	IQUANT	0	Compliance Voltage
ZCURVE	TABLE
	Pt	Time	Freq	Zreal	Zimag	Zsig	Zmod	Zphz	ZrealDrCor	ZimagDrCor	ZmodDrCor	ZphzDrCor	Idc	Vdc	IERange	Imod	Vmod	Temp	Ithd	Vthd	IHr1	IHi1	VHr1	VHi1	IHr2	IHi2	VHr2	VHi2	IHr3	IHi3	VHr3	VHi3	IHr4	IHi4	VHr4	VHi4	IHr5	IHi5	VHr5	VHi5	IHr6	IHi6	VHr6	VHi6	IHr7	IHi7	VHr7	VHi7	IHr8	IHi8	VHr8	VHi8	IHr9	IHi9	VHr9	VHi9	IHr10	IHi10	VHr10	VHi10
	#	s	Hz	ohm	ohm	V	ohm	deg	ohm	ohm	ohm	deg	A	V	#	A	V	degC	#	#	A	A	V	V	A	A	V	V	A	A	V	V	A	A	V	V	A	A	V	V	A	A	V	V	A	A	V	V	A	A	V	V	A	A	V	V	A	A	V	V
	0	1	10078.13	0.0337383	0.0246861	1	0.0418053	36.19268	0.0337383	0.0246861	0.0418053	36.19268	-0.0762	3.441634	12	0.2106555	0.0088051	-327.5556	0.1298202	0.2331136	18.0229	6.221037	0.4577893	0.6523459	-1.236162	-1.191932	0.01349	-0.1025965	0.87264	1.36011	-0.0648966	0.1137927	0.242208	0.6509776	-0.0515942	0.0491517	0.0032165	-0.2462416	0.0286775	-0.0105181	0.0276578	-0.1257042	0.0188789	-0.0019667	-0.025778	0.0282511	-0.0057251	-0.0026243	0.0273432	-0.0340944	0.0073662	0.0032617	0.035514	-0.0175432	0.0053897	0.0062346	-0.0417776	0.0085529	-0.0043647	-0.0091076
	1	3	8015.625	0.0335103	0.0196265	1	0.0388348	30.35692	0.0335103	0.0196265	0.0388348	30.35692	-0.0743884	3.441597	12	0.3248062	0.0126125	-327.5556	0.1032807	0.1891276	28.72991	-6.23227	1.086405	0.3505273	-1.296742	0.3291194	-0.0583033	-0.0389478	2.04334	-1.352612	0.1520936	0.069266	0.5139192	-0.6583286	0.0697804	0.013643	-0.2890959	0.6632791	-0.0741756	0.0003505	-0.0397772	0.3937009	-0.0458036	0.0122326	-0.0161763	-0.1747815	0.0219188	-0.0099804	-0.0472175	-0.1127099	0.0141919	-0.0124435	0.0111586	0.0250651	-0.0034602	0.0031112	-0.0094227	-0.0025527	0.0001471	-0.0017068
	2	5	6328.125	0.0333036	0.0153248	1	0.0366603	24.70965	0.0333036	0.0153248	0.0366603	24.70965	-0.0721698	3.441602	12	0.3094175	0.0113426	-327.5556	0.1049874	0.1715335	-3.041879	27.83958	-0.5250472	0.8821965	1.181784	0.5919298	0.0223198	0.0568998	0.991403	-2.146023	0.1336994	-0.0297787	0.7506933	0.325438	0.0081353	0.0575955	0.3119137	-0.6051673	0.0574254	-0.0002949	0.3363731	0.1662405	-0.0012404	0.036659	0.0867192	-0.1285105	0.0169623	0.0038171	0.0912615	0.0492483	-0.0018723	0.0126541	0.0174749	-0.0122295	0.0024424	0.0017059	-0.0115522	-0.0190753	0.0021975	-0.0025952
	3	7	5015.625	0.0332013	0.0119126	1	0.0352737	19.73795	0.0332013	0.0119126	0.0352737	19.73795	-0.070091	3.44162	12	0.3267697	0.0115259	-327.5556	0.1007073	0.1502536	14.43637	25.81318	0.1744446	1.028519	0.9379851	-0.773323	0.0508688	-0.0031841	-2.385199	-0.4934885	-0.0638833	-0.1047842	-0.3573238	-0.7256654	0.0222927	-0.0434251	-0.3960905	0.6531811	-0.0540071	0.0005913	-0.4015556	0.0440388	-0.0183811	-0.0269237	0.113588	0.1636109	-0.009074	0.0159426	-0.0303497	0.134205	-0.0137208	0.0025685	0.0337764	-0.0015772	0.0016618	0.003269	0.0094204	-0.0098891	0.0017142	0.0006065
	4	9	3984.375	0.0331679	0.0091528	1	0.0344076	15.42706	0.0331679	0.0091528	0.0344076	15.42706	-0.0691826	3.441583	12	0.3279171	0.0112825	-327.5556	0.0988199	0.1341641	19.63709	-22.25461	0.8538474	-0.5601364	-0.3383729	1.112293	-0.0330112	0.030694	-1.628944	-1.762393	-0.0035019	-0.1074362	-0.7909951	0.1626123	-0.0339257	-0.0249829	0.3346845	-0.6976026	0.0457099	-0.0091796	-0.2246248	-0.3504782	0.0118613	-0.0257757	0.2047866	0.0312689	0.0056124	0.0148532	0.0845561	-0.1225287	0.0125957	0.0017066	0.0017579	0.0353883	-0.0028012	0.0016516	0.0168585	-0.0166978	0.0022764	0.0007758
	5	10	3170.956	0.0332017	0.0069117	1	0.0339134	11.75944	0.0332017	0.0069117	0.0339134	11.75944	-0.0678351	3.441576	12	0.3269387	0.0110874	-327.5556	0.0961657	0.120473	-28.74425	-7.028685	-0.9064649	-0.4305531	-0.5896124	-0.9136337	-0.0056715	-0.0394156	-1.220387	-1.980004	0.0053885	-0.0948854	0.3992244	0.6955316	-0.0079684	0.0362325	0.2827602	0.7241331	-0.0179684	0.0364938	-0.1360673	-0.4044559	0.0137459	-0.0208144	-0.0243978	-0.213971	0.0105114	-0.0090077	0.0268768	0.1620917	-0.008865	0.0075686	-0.008698	0.0378469	-0.0029066	0.0007541	-0.0233115	-0.0244336	0.0009339	-0.0027535
	6	12	2527.573	0.0333004	0.0050792	1	0.0336855	8.672275	0.0333004	0.0050792	0.0336855	8.672275	-0.0656249	3.441624	12	0.3226047	0.010867	-327.5556	0.0930228	0.1090103	25.51798	-14.19173	0.9213855	-0.3441717	-0.9146569	0.3785752	-0.0348606	0.0015562	0.9222049	-2.015901	0.0681219	-0.0500844	-0.2396483	-0.7447283	0.0101673	-0.031178	0.6237659	0.4583315	0.0073905	0.0350745	0.4315898	-0.037329	0.0164721	0.0146602	-0.1785714	0.1322695	-0.0119803	-0.0029209	-0.01757	0.1759901	-0.009052	0.0055479	-0.0108885	-0.0385561	0.0018234	-0.0020483	-0.043364	0.0161309	-0.0024878	-0.0020442
	7	14	1976.103	0.0334566	0.0034474	1	0.0336338	5.883047	0.0334566	0.0034474	0.0336338	5.883047	-0.0654365	3.441575	12	0.3189103	0.0107261	-327.5556	0.0882685	0.0974643	27.1377	9.83375	0.8744581	0.4216692	-0.1277185	-0.8947763	0.0037521	-0.0306227	0.0945413	2.04813	-0.0262837	0.0691608	-0.0348557	0.7737274	-0.0159353	0.0252204	0.1881102	-0.732508	0.023976	-0.0203741	0.1616859	-0.4230217	0.0177071	-0.00974	-0.1334249	0.17806	-0.0105898	0.0015948	-0.1199756	0.1564901	-0.0101806	0.0009384	0.0386649	-0.01748	0.0023263	0.0010963	0.0288701	-0.0524704	0.0035298	-0.0006237
	8	16	1577.524	0.0336581	0.0022047	1	0.0337302	3.747654	0.0336581	0.0022047	0.0337302	3.747654	-0.0637065	3.441607	12	0.3116815	0.010513	-327.5556	0.0831789	0.0882826	3.408514	28.00351	0.0537544	0.950013	0.6551332	0.4664962	0.0186183	0.0199046	0.4068155	-1.818462	0.0338836	-0.0554459	0.7278743	-0.1241391	0.0262463	0.006907	-0.3211918	-0.6522999	0.0017905	-0.0281656	0.3098453	-0.3376917	0.0181506	-0.0041976	-0.1941388	-0.1143412	-0.0035968	-0.0090913	0.013795	-0.2118535	0.0070024	-0.0069084	-0.04456	-0.0021313	-0.0014663	-0.0016046	-0.0593135	-0.0406076	-0.0005039	-0.0037396
	9	18	1265.625	0.0339012	0.0011922	1	0.0339222	2.014097	0.0339012	0.0011922	0.0339222	2.014097	-0.0631918	3.441577	12	0.3071612	0.0104196	-327.5556	0.0762233	0.078421	-23.23921	-15.25902	-0.7699979	-0.544504	0.3629928	-0.5685233	0.014935	-0.0171713	1.249028	-1.077849	0.0505044	-0.0247524	-0.6529778	0.2812324	-0.0250241	0.001477	-0.6903562	-0.0036238	-0.022949	-0.0106802	0.4394394	0.1530952	0.0120097	0.0134041	0.1593199	0.1619944	0.0018373	0.0087315	-0.1166597	-0.2002503	0.0009798	-0.0097237	0.004301	-0.046122	0.0013325	-0.0015221	0.0048109	0.0871888	-0.0025568	0.0030835
	10	20	998.264	0.034206	0.0002677	1	0.034207	0.4483465	0.034206	0.0002677	0.034207	0.4483465	-0.0608413	3.441642	12	0.3013155	0.0103071	-327.5556	0.0687994	0.0692221	-16.73472	21.53391	-0.5778152	0.7324038	-0.381747	0.3731416	-0.014164	0.0111549	0.5036929	1.349419	0.0081913	0.0480222	-0.6314866	-0.0396481	-0.0207481	-0.0070589	-0.3253518	0.5681043	-0.0175033	0.0151408	-0.2717987	-0.3625965	-0.0037758	-0.01597	-0.2283892	0.0284367	-0.0081366	-0.0028639	0.0540163	-0.2396835	0.0064108	-0.006878	-0.0356149	-0.0396292	-0.0004056	-0.00228	0.0813684	-0.0615215	0.0042937	-0.0002139
	11	21	796.875	0.0345298	-0.0004964	1	0.0345333	-0.8236672	0.0345298	-0.0004964	0.0345333	-0.8236672	-0.0613013	3.441592	12	0.2955949	0.0102079	-327.5556	0.0610295	0.0602202	-25.57307	7.861631	-0.879012	0.2845147	-0.3957921	-0.2191001	-0.0128803	-0.0082235	-1.213152	-0.0205862	-0.0403311	-0.0065162	0.4931362	-0.2771533	0.0182979	-0.0057823	0.3146165	-0.497113	0.014967	-0.0138104	-0.0104154	0.4396535	-0.0052534	0.0143967	0.0932489	0.1971229	0.0004423	0.007814	-0.2191046	-0.1344695	-0.005331	-0.0077914	-0.0483599	-0.0113326	-0.0014706	-0.0011539	0.0941021	-0.0687644	0.0045744	-0.0006006
	12	23	627.7902	0.0349364	-0.0011863	1	0.0349565	-1.944787	0.0349364	-0.0011863	0.0349565	-1.944787	-0.05978	3.44162	12	0.2908364	0.0101666	-327.5556	0.0528566	0.0513703	16.76992	-20.29031	0.5615742	-0.7289444	-0.3037941	0.2042139	-0.0104251	0.0066459	-0.0525483	-1.000508	0.0013466	-0.0337813	-0.4379417	-0.2000727	-0.0136611	-0.0090362	0.421589	-0.3075061	0.0162094	-0.00713	-0.0704291	-0.3992059	0.0009302	-0.0139005	0.1990791	0.0730066	0.0058898	0.0045073	0.1794041	-0.1819677	0.0081313	-0.0039358	0.010754	0.0552229	-0.0002437	0.001992	0.1273124	0.0077347	0.0041499	0.0021853
	13	25	505.5147	0.0353364	-0.0017267	1	0.0353786	-2.797471	0.0353364	-0.0017267	0.0353786	-2.797471	-0.0592155	3.441617	12	0.2858107	0.0101116	-327.5556	0.0458724	0.0439802	3.416123	25.64208	0.1652226	0.9001575	0.1752523	0.2461607	0.0058343	0.0085154	0.5379971	-0.6340455	0.0193903	-0.0202169	0.3832584	0.1546705	0.0124382	0.0065725	0.0417674	-0.4503141	0.0037215	-0.0149076	0.3535194	-0.0931462	0.0124238	-0.0007884	-0.1009769	-0.163607	-0.0021005	-0.0062737	0.1488226	-0.1941925	0.0068733	-0.0049365	-0.0465797	-0.0214554	-0.0013088	-0.0010855	-0.0120385	-0.1296375	0.0010786	-0.0045216
	14	26	397.9953	0.0358366	-0.0022531	1	0.0359073	-3.597536	0.0358366	-0.0022531	0.0359073	-3.597536	-0.0592184	3.441585	12	0.2809119	0.0100868	-327.5556	0.0387764	0.0366172	-15.40006	-20.2307	-0.5976077	-0.6901787	0.2429525	-0.0090708	0.008467	-0.0002387	0.4625523	0.4871111	0.0152173	0.0170896	-0.0028762	-0.3467914	0.0005397	-0.0116611	0.2622366	-0.2682837	0.0097098	-0.0080049	-0.3180145	0.0223301	-0.0106752	-0.000829	-0.1253864	-0.1096697	-0.0033858	-0.0044506	0.0355816	0.2249373	-0.0003836	0.0076859	-0.025858	0.0344927	-0.0012136	0.0009131	0.125904	-0.0410488	0.0044618	-0.0004408
	15	28	315.5048	0.0363726	-0.0027038	1	0.036473	-4.251261	0.0363726	-0.0027038	0.036473	-4.251261	-0.0581551	3.441607	12	0.2757137	0.0100561	-327.5556	0.0324231	0.0302413	-14.54305	20.27905	-0.4740134	0.7769995	-0.1614092	0.1076134	-0.0056443	0.003886	-0.0001021	0.5382365	-0.000119	0.0184517	-0.2510997	-0.125618	-0.0082514	-0.0044618	-0.2583186	0.1772875	-0.0090879	0.0053539	-0.0388398	-0.267239	-0.0003715	-0.0090888	-0.1350877	-0.0469491	-0.0043392	-0.002243	0.142694	-0.1416904	0.0054481	-0.0039527	-0.009012	-0.040549	-0.0001106	-0.001483	0.1214429	0.0070118	0.0039556	0.0010796
	16	30	252.4038	0.0369316	-0.0030665	1	0.0370587	-4.746449	0.0369316	-0.0030665	0.0370587	-4.746449	-0.0574541	3.441615	12	0.2707025	0.0100319	-327.5556	0.0269894	0.024918	21.09572	12.46112	0.8173606	0.3954132	0.1148236	-0.1066836	0.0038767	-0.0039344	-0.4211552	0.0854458	-0.0144252	0.0031424	-0.2233495	-0.0467897	-0.0076618	-0.0016897	0.2082751	0.1549291	0.0068475	0.0054963	0.1192875	0.1907822	0.0036753	0.0067477	-0.0189247	-0.1171616	-0.0002174	-0.0040245	0.0412088	-0.1700566	0.0019696	-0.0055046	-0.0213918	0.0240296	-0.00073	0.0006038	-0.0925813	0.0604124	-0.0035126	0.0014387
	17	31	198.6229	0.0375789	-0.0034033	1	0.0377327	-5.174838	0.0375789	-0.0034033	0.0377327	-5.174838	-0.0577772	3.44157	12	0.2654625	0.0100166	-327.5556	0.0220175	0.0201858	-21.54603	-10.63304	-0.8458978	-0.3261643	0.0823238	-0.0972678	0.0028772	-0.0036526	0.3138533	-0.1185703	0.0108151	-0.004596	-0.1878648	0.0047704	-0.0064987	0.0003166	-0.1902238	-0.0734336	-0.0064057	-0.0027492	0.1422939	0.1177877	0.0046153	0.0040679	0.047903	0.0825663	0.0014678	0.0028641	-0.0298625	-0.1440269	-0.0005491	-0.0050061	0.0027191	-0.0239419	0.0002189	-0.0007718	-0.0374942	0.0854668	-0.0016966	0.0026801
	18	33	158.3615	0.0382324	-0.0036568	1	0.0384068	-5.46348	0.0382324	-0.0036568	0.0384068	-5.46348	-0.057319	3.441564	12	0.2606265	0.0100098	-327.5556	0.0179343	0.0164686	-3.476857	-23.33159	-0.218318	-0.8792897	0.0488255	0.0902541	0.0020566	0.0033171	-0.2255929	0.1398229	-0.0078275	0.0053039	0.1074471	0.102613	0.0039123	0.0036623	-0.0874077	0.1401983	-0.0031214	0.0047872	0.1441497	0.0414507	0.0048835	0.0014627	-0.0047345	0.0745965	-0.0003206	0.0025318	0.1181524	-0.0227062	0.0039985	-0.000653	0.0093481	0.0161839	0.0002892	0.0006814	0.0557638	-0.0511368	0.0020607	-0.0017014
	19	35	125.558	0.0389362	-0.0038651	1	0.0391275	-5.669066	0.0389362	-0.0038651	0.0391275	-5.669066	-0.0558054	3.441606	12	0.2556731	0.0100039	-327.5556	0.0143906	0.0132929	8.900077	21.36093	0.4291487	0.7972851	0.0637434	0.0428686	0.0024858	0.0013988	0.062453	-0.1973974	0.0018606	-0.007344	0.1167969	-0.0182132	0.0043607	-0.0009657	-0.0761794	-0.1071968	-0.0027604	-0.0036767	0.0536246	-0.1061932	0.0016255	-0.0037704	-0.0588345	-4.969538E-006	-0.0021876	2.551079E-005	-0.044784	-0.084377	-0.0014011	-0.0030334	-0.0098064	0.0121625	-0.0002733	0.0003898	-0.0621391	-0.0040706	-0.0022767	-0.0001712
	20	36	100.4464	0.0396479	-0.0040054	1	0.0398497	-5.768737	0.0396479	-0.0040054	0.0398497	-5.768737	-0.0554369	3.441603	12	0.2508465	0.0099962	-327.5556	0.0116675	0.0104922	-2.19156	22.59801	0.0036707	0.9047417	0.0029277	0.0635541	0.0003035	0.002407	0.1599408	0.0422586	0.005851	0.0012136	-0.0245875	0.0911331	-0.0006566	0.003408	0.0972008	0.0345466	0.003458	0.0011108	-0.0327879	0.0884015	-0.0009985	0.0031223	0.0441851	0.0180708	0.0015334	0.0008121	-0.0283132	0.0673218	-0.0009806	0.0022478	0.0109752	0.0054283	0.0005077	0.0001903	-0.0220691	0.0454596	-0.0007997	0.001606
	21	38	79.00281	0.0404501	-0.0040831	1	0.0406556	-5.764051	0.0404501	-0.0040831	0.0406556	-5.764051	-0.0553111	3.441591	12	0.2458507	0.0099952	-327.5556	0.0092362	0.0083442	-21.92947	3.774122	-0.8716284	0.2422397	-0.0269334	-0.0426991	-0.0011253	-0.0016281	-0.0610195	-0.1112443	-0.0026562	-0.0040492	0.0522724	0.0546941	0.0019958	0.0017544	0.0639549	0.045393	0.0024064	0.001498	-0.0692149	-0.0253657	-0.0024152	-0.0006795	-0.0346164	-0.0062297	-0.0012121	-0.0003068	0.059365	-0.0048959	0.0021377	-0.0003428	0.0068452	-0.0025322	0.0001501	-0.0001552	-0.0328376	0.0191567	-0.0011471	0.0007818
	22	40	63.3446	0.0411802	-0.0040517	1	0.041379	-5.619231	0.0411802	-0.0040517	0.041379	-5.619231	-0.0551622	3.441577	12	0.2412739	0.0099837	-327.5556	0.00735	0.0067816	11.46478	18.58603	0.5474503	0.7189065	0.0417576	0.0048972	0.0015595	0.000177	-0.0070029	-0.0982089	-0.000396	-0.0037467	0.0467487	-0.0368706	0.0018256	-0.0013916	-0.0575677	-0.01786	-0.0023708	-0.000562	-0.0136677	-0.0562204	-0.0006561	-0.0020995	-0.0163674	0.0191994	-0.0006096	0.0006034	-0.0454001	-0.0069395	-0.0017273	-6.294251E-005	0.0023196	0.0042001	0.0001735	0.0001955	-0.013155	0.0288663	-0.0004905	0.0009038
	23	41	49.86702	0.0419603	-0.0039431	1	0.0421451	-5.368423	0.0419603	-0.0039431	0.0421451	-5.368423	-0.0537065	3.441621	12	0.2365697	0.0099708	-327.5556	0.0058118	0.0051916	20.55335	-6.002221	0.8387811	-0.3329687	-0.0267387	-0.0183409	-0.0010295	-0.0007349	0.0560469	0.0516458	0.0023031	0.0018036	0.0419675	0.0175052	0.001606	0.000494	-0.048409	-0.0022307	-0.0018063	2.026558E-005	-0.0448094	0.0064707	-0.0016356	0.0003963	0.0162425	-0.0095681	0.0006474	-0.0003767	0.0229538	-0.0258178	0.0007893	-0.0009649	-0.0027258	0.0041609	-7.623435E-005	0.0001812	-0.0007418	0.0242074	3.787875E-005	0.0008485
	24	43	39.72458	0.0426656	-0.0037572	1	0.0428307	-5.032614	0.0426656	-0.0037572	0.0428307	-5.032614	-0.0539236	3.441592	12	0.2320406	0.0099388	-327.5556	0.0046201	0.0041036	-3.459647	20.715	-0.0697355	0.8968512	0.0027348	0.0264257	0.0000997	0.0010159	0.0512798	0.030825	0.0020952	0.0010524	-0.0215169	0.0277383	-0.0007703	0.0011003	0.0277071	0.0230535	0.0010967	0.0007663	-0.0291896	0.0186246	-0.0010433	0.0007746	0.005294	0.0131492	0.0002444	0.0005302	-0.0273312	0.011195	-0.0009205	0.0004325	-0.0005267	0.0014247	2.336502E-005	7.31945E-005	-0.0178105	0.0025211	-0.0006492	4.172325E-005
	25	45	31.6723	0.0433057	-0.003496	1	0.0434466	-4.615342	0.0433057	-0.003496	0.0434466	-4.615342	-0.0526678	3.441638	12	0.2267291	0.0098508	-327.5556	0.0035568	0.0032425	16.7688	11.82904	0.7675729	0.4536226	0.0126297	-0.014771	0.0005553	-0.0005941	-0.0448329	-0.0126267	-0.0018625	-0.0002999	-0.0171387	-0.0212659	-0.0007205	-0.0008078	0.0048862	0.0229713	0.0002418	0.0008867	-0.0156264	0.0238399	-0.0004866	0.0009862	0.0106676	-0.0038548	0.0003872	-0.0001621	0.0199863	0.0026532	0.0007362	2.908707E-005	-0.0016295	-0.0016027	-7.009507E-005	-4.041196E-005	-0.0028812	-0.0110315	-0.0001373	-0.0004092
	26	46	24.93351	0.0438929	-0.0031687	1	0.0440071	-4.129062	0.0438929	-0.0031687	0.0440071	-4.129062	-0.0530755	3.441603	12	0.2191091	0.0096425	-327.5556	0.0028251	0.0024672	-18.21593	7.840153	-0.7747055	0.4018757	-0.0202487	0.0001693	-0.0007999	-4.112721E-005	-0.0330213	-0.0112856	-0.0012813	-0.0003514	0.0226644	-0.0018716	0.0008993	-0.0000954	0.0134634	-0.0039205	0.0004666	-0.0002031	-0.014079	0.0147584	-0.0004141	0.00067	-0.0013821	0.0080543	-0.0000968	0.0002975	-0.0023953	-0.0147098	-0.0001478	-0.0005687	0.0031022	-0.0004193	0.0000999	-1.001358E-005	0.0074808	0.0051562	0.0002465	0.0001359
	27	48	19.86229	0.0443757	-0.0028466	1	0.0444669	-3.670306	0.0443757	-0.0028466	0.0444669	-3.670306	-0.0514949	3.441665	12	0.2426733	0.010791	-327.5556	0.0022449	0.0019814	1.215044	-21.93064	-0.0085316	-0.976655	0.0103646	0.0070907	0.0004218	0.0002508	-0.0286764	-0.0110324	-0.0011942	-0.0005008	-0.0014831	0.0141643	-5.078317E-005	0.0004683	-0.0193416	-0.0080887	-0.000752	-0.0002751	-0.0062472	0.0161246	-0.0002162	0.0005755	-0.0065594	-0.0035103	-0.0003598	-0.0002004	-0.0062644	0.0134898	-0.0001571	0.0004933	0.0009911	-0.0027399	-0.0001004	-8.928777E-005	-0.004582	0.0090528	-0.00016	0.0003241
	28	50	15.83615	0.0447632	-0.0025184	1	0.044834	-3.22007	0.0447632	-0.0025184	0.044834	-3.22007	-0.0512991	3.44166	12	0.2229463	0.0099956	-327.5556	0.0018023	0.0014953	1.089735	-20.14935	-0.0019808	-0.9046989	0.009888	0.0100476	0.0003591	0.0003188	-0.022167	-0.0046296	-0.0009475	-0.0001892	-0.0044754	0.0110882	-9.2268E-005	0.0003667	-0.0135732	-0.0029841	-0.0004213	-0.0001873	-0.0046668	0.0093418	-8.344651E-005	0.0003495	-0.0065127	-0.0017788	-0.0002294	-5.400182E-005	-0.0029416	0.0088235	-0.0000975	0.0002604	-0.0012472	0.0018615	8.34465E-006	3.540516E-005	-0.0039934	0.0035887	-0.0001233	0.0001789
	29	51	12.40079	0.0450896	-0.0021758	1	0.045142	-2.762652	0.0450896	-0.0021758	0.045142	-2.762652	-0.0502959	3.441694	12	0.2216277	0.0100048	-327.5556	0.0014029	0.001242	1.031035	-20.03293	0.0028882	-0.9055228	0.0077183	0.0033969	0.0003128	1.03116E-005	-0.0155739	-0.0069555	-0.0007312	-0.0003357	-0.0042364	0.0093131	-0.0001335	0.0002162	-0.0115375	-0.0039603	-0.0003791	-0.0001643	-0.0050883	0.0083751	-6.246568E-005	0.0002695	-0.0037233	-0.0028427	-0.0001948	-8.940698E-005	-0.0048472	0.0045897	-0.0001252	0.0002521	-0.0001468	-0.0018971	-1.430512E-005	-0.0002199	-0.0016143	0.0027774	-0.0001757	5.471706E-005
	30	53	9.93114	0.045329	-0.0018924	1	0.0453685	-2.390645	0.045329	-0.0018924	0.0453685	-2.390645	-0.0507774	3.441658	12	0.2202107	0.0099906	-327.5556	0.0013765	0.0011396	0.984629	-19.90687	0.0069492	-0.9042233	0.0103407	0.012431	0.0003448	0.0004688	-0.0141022	0.0018067	-0.0005777	2.413988E-005	-0.0012474	0.0094012	-1.239777E-005	0.0003713	-0.0079754	-0.0011222	-0.0002999	-4.541875E-005	-0.0029556	0.007439	-6.604196E-005	0.0002338	-0.0030081	0.0008669	-0.0001187	-3.814698E-006	-0.0028197	0.0050702	-0.0001125	0.0001935	-0.0005862	0.0026613	-7.033349E-005	0.0001086	-0.0017194	0.0040475	-0.0001025	9.167194E-005
	31	55	7.944915	0.0455067	-0.0016343	1	0.0455361	-2.05686	0.0455067	-0.0016343	0.0455361	-2.05686	-0.0501251	3.44167	12	0.2196793	0.0100033	-327.5556	0.001036	0.0008894	0.9351671	-19.8611	0.010088	-0.905343	0.0115506	0.0058815	0.0003352	0.0001728	-0.0101108	-0.0020405	-0.0004752	-3.993512E-006	-0.0010432	0.0069101	-2.169609E-005	0.0002406	-0.0043647	-0.0025692	-0.0002108	-0.0001178	-0.0018979	0.0050014	-7.963182E-005	0.0002848	-0.0027893	-0.0002953	-0.0001485	-6.115438E-005	-0.003508	0.0042384	-0.0000966	0.0001893	-0.0002544	0.0008377	-8.106233E-006	1.764298E-005	-0.0014813	0.0023911	-3.19481E-005	6.29425E-005
	32	57	6.317385	0.0456664	-0.0014096	1	0.0456882	-1.768062	0.0456623	-0.0014095	0.045684	-1.768046	-0.050243	3.441655	12	0.2190307	0.0100071	-327.5556	0.0008267	0.0006506	0.8838788	-19.80469	0.0124393	-0.9056558	0.0093518	0.0039854	0.0002439	0.0001363	-0.0084864	-0.0010816	-0.000356	-6.747247E-005	-0.0002188	0.0053923	-5.483628E-006	0.0001771	-0.0048533	-0.0010286	-0.0001869	-8.010865E-005	-0.0017303	0.0047806	-5.316735E-005	0.0001829	-0.0013967	-0.0013921	-8.034707E-005	-0.0000961	-0.0008043	0.0024537	-2.884865E-005	8.714199E-005	8.193776E-005	-0.0005769	-1.549721E-005	-5.042554E-005	0.0001827	0.0012468	4.506111E-005	2.026558E-006
	33	59	5.008013	0.0457873	-0.0012176	1	0.0458035	-1.523216	0.0457834	-0.0012177	0.0457995	-1.523494	-0.0498008	3.441659	12	0.2180956	0.0099896	-327.5556	0.0008015	0.0006267	0.8412219	-19.72183	0.0144997	-0.9040351	0.0110612	0.0039601	0.0003843	9.000301E-005	-0.0062189	0.0002131	-0.0002694	-3.778935E-005	-0.0003708	0.0047029	4.768372E-006	0.0001555	-0.003638	0.0008155	-0.0001309	-6.079675E-006	-0.0022188	0.004035	-7.987023E-005	0.0001399	-0.0017438	-0.0007658	-5.435945E-005	-6.544591E-005	-0.00023	0.0031516	-2.956391E-005	0.0001187	-0.0008485	-0.0003951	-7.390977E-006	-1.28746E-005	-0.0001625	0.0012908	-3.83854E-005	8.34465E-006
	34	61	3.945707	0.0458844	-0.0010596	1	0.0458967	-1.322876	0.0458783	-0.0010604	0.0458906	-1.324009	-0.0493047	3.441659	12	0.2177795	0.0099954	-327.5556	0.0007034	0.0005458	0.8034118	-19.69477	0.0159914	-0.9045352	0.0089451	0.0050825	0.0002263	0.0001536	-0.0050564	0.0016462	-0.0002823	-1.722574E-005	-0.0003056	0.0044599	-1.788139E-005	0.0001675	-0.0029454	0.0003992	-0.0001297	-2.640486E-005	-0.0008202	0.0037271	3.33786E-006	0.0001551	-0.0016612	0.0010085	-4.911424E-005	2.801418E-005	-0.0013211	0.0026699	-4.935266E-005	0.0000981	-2.589077E-005	0.0001798	-1.120567E-005	6.914139E-006	-0.000319	0.0013835	-4.982949E-005	3.457069E-005
	35	64	3.158693	0.0459633	-0.0009511	1	0.0459731	-1.185467	0.0459597	-0.000952	0.0459695	-1.186631	-0.0488475	3.441657	12	0.2175442	0.0100012	-327.5556	0.0008125	0.0006466	0.7839457	-19.67425	0.0173166	-0.9050392	0.007729	0.0103435	0.0001338	0.0004314	-0.00394	0.0024168	-0.000145	5.936623E-005	8.53464E-006	0.0047735	-3.57628E-006	0.0001874	-0.0030546	0.0017972	-0.0001373	7.635355E-005	-0.0015322	0.0040252	-5.412103E-005	0.000196	-0.0009514	0.000188	-3.409387E-005	-8.225442E-006	-0.0009814	0.0030307	-3.242494E-005	8.440018E-005	3.294274E-005	1.257286E-005	2.384186E-007	-1.811981E-005	-0.0010536	0.0013336	-4.315377E-005	3.612041E-005
	36	68	2.504006	0.0460305	-0.0008593	1	0.0460385	-1.06952	0.0460229	-0.0008585	0.0460309	-1.068614	-0.048043	3.441672	12	0.217359	0.0100069	-327.5556	0.0005619	0.0004992	0.7536297	-19.65865	0.0177939	-0.9055451	0.0094311	-0.0015736	0.0002332	-0.0001544	-0.0031429	-0.0029411	-0.0001438	-0.0002148	-0.0003994	0.0001498	-1.764298E-005	-5.042554E-005	-0.0016605	-0.0022073	-7.271768E-005	-0.000187	-0.0003031	0.0006452	1.597405E-005	4.220009E-005	-0.0006469	-0.0010593	5.960464E-006	-7.486344E-005	5.74179E-005	0.0005134	1.40667E-005	9.059906E-006	6.556883E-005	-0.001385	-1.430512E-005	-6.771089E-005	-0.0001235	-0.000404	-1.382828E-005	-5.805493E-005
	37	73	1.998082	0.0460979	-0.0007921	1	0.0461047	-0.984374	0.0460921	-0.000795	0.0460989	-0.988126	-0.0474272	3.441674	12	0.2170042	0.0100049	-327.5556	0.0003512	0.0003066	0.7598229	-19.62628	0.0194788	-0.9053328	0.0026546	0.0004685	-8.416177E-005	-4.580618E-005	-0.003934	0.0020491	-0.0001831	6.115437E-005	0.000226	0.002963	4.053116E-006	0.000101	-0.0023564	0.0009042	-9.48906E-005	-1.549721E-005	-0.0006239	0.0015041	-4.768373E-006	4.392862E-005	-0.0002738	-0.0002724	-9.298326E-006	-3.373624E-005	-3.58522E-005	0.0011804	1.66893E-005	3.826618E-005	-0.0005206	-0.0007439	-2.145767E-005	-4.374982E-005	-0.0001164	0.0006304	-4.196168E-005	-4.577638E-005
	38	77	1.584686	0.0461536	-0.0007611	1	0.0461598	-0.9447177	0.0461415	-0.000761	0.0461478	-0.9448322	-0.0473051	3.441661	12	0.2167026	0.010003	-327.5556	0.0016209	0.0014474	0.7504628	-19.59932	0.0197184	-0.9051496	0.0298827	-0.0039721	0.0011668	-0.0002917	0.0038262	-0.0046621	0.0001976	-0.000389	-0.0026371	0.0050836	-0.0001252	0.0001855	-0.0030191	0.0021174	-0.0001144	-1.27554E-005	0.000145	0.0029537	5.197525E-005	9.387732E-005	-0.0008069	0.0017066	6.198883E-006	-3.695489E-006	-0.0004324	0.0023438	-1.215935E-005	6.258488E-005	-0.0001702	0.0003612	-2.908707E-005	1.072884E-006	-0.0002019	0.0010298	-1.311302E-005	-1.120567E-005
	39	82	1.266892	0.0462034	-0.0007482	1	0.0462094	-0.9277453	0.0461933	-0.0007479	0.0461994	-0.9275407	-0.0466512	3.441667	12	0.2164302	0.0100011	-327.5556	0.0013184	0.0012809	0.7468607	-19.57479	0.0198603	-0.9049797	0.0172723	-0.0156974	0.0005825	-0.0008313	-0.0081188	-0.0052762	-0.0003421	-0.0003377	0.0031323	-0.0017556	0.0001366	-0.0001308	-0.0029994	-0.0012562	-0.000124	-0.0000989	-0.0009969	-0.0003669	-2.479553E-005	-4.303456E-005	-0.0006672	-0.0012573	-5.722047E-006	-0.0001036	0.0008105	-0.0005927	2.622604E-005	-3.123283E-005	-0.0004218	-0.000409	-2.384186E-005	-2.527237E-005	0.0001939	-0.0007024	-5.006791E-006	-7.736684E-005
	40	88	0.999041	0.0462566	-0.0007553	1	0.0462628	-0.9354174	0.046245	-0.0007548	0.0462512	-0.9350975	-0.0458323	3.441679	12	0.2163792	0.0100103	-327.5556	0.0013537	0.0011076	0.7639041	-19.5695	0.0205545	-0.9057966	0.0225086	0.0102298	0.0008736	0.0003124	-0.0049868	6.045261E-005	-0.0001862	-7.271768E-005	0.0025004	-0.0012275	0.0001144	-0.0001652	-0.0026777	0.0064795	-8.511544E-005	0.0002066	-0.0003638	-0.0005948	3.242493E-005	-5.608798E-005	-0.0002532	0.0028911	4.053116E-006	7.808208E-005	4.7829E-005	-0.0005769	1.358986E-005	-6.055833E-005	0.0001909	3.079698E-005	3.33786E-006	-1.001358E-005	-0.000419	0.0005417	-2.217293E-005	-3.659726E-005
	41	95	0.7923428	0.046325	-0.0007877	1	0.0463317	-0.974129	0.0463131	-0.0007862	0.0463197	-0.972486	-0.0454123	3.44167	12	0.2152864	0.0099746	-327.5556	0.0021194	0.0021478	0.7889642	-19.46952	0.0212121	-0.9025462	-0.004476	0.0296254	-0.0003357	0.001238	0.0132679	-0.0157231	0.0006235	-0.0008892	0.0057086	0.0107057	0.0003173	0.000401	0.0011067	-0.0137862	6.508827E-005	-0.0007364	-0.0008236	0.0024311	-1.525879E-005	0.0001051	0.0018784	-0.0037147	0.0001204	-0.0002205	-0.0020903	0.0028146	-9.107591E-005	0.0001174	0.0024203	-0.0006949	0.0000963	-5.102159E-005	-0.0017184	-0.0007562	-9.346009E-005	-0.0000982
	42	102	0.6334459	0.0464016	-0.000837	1	0.0464091	-1.033457	0.0463841	-0.0008374	0.0463916	-1.034227	-0.0447283	3.441675	12	0.2157586	0.0100132	-327.5556	0.0017472	0.0015328	0.8136504	-19.51128	0.0214221	-0.9060359	0.0263252	0.0087023	0.0010645	0.0001688	-0.0109099	0.0056372	-0.0004468	7.259846E-005	-0.0044556	-0.0077998	-0.0002251	-0.0004523	-0.0015157	0.0048793	-2.837181E-005	0.0001404	-0.0065631	-0.0039481	-0.000257	-0.0002388	-0.0009971	-0.0025372	-1.692772E-005	-0.0001895	0.0006769	0.0065064	5.38826E-005	0.0002602	0.0046161	-0.001575	0.0001941	-0.0001278	0.0016743	0.001525	5.793571E-005	-7.748605E-006
	43	110	0.5040323	0.0464786	-0.0009083	1	0.0464875	-1.119529	0.0464603	-0.000908	0.0464692	-1.119616	-0.044096	3.441671	12	0.2151563	0.0100021	-327.5556	0.0009698	0.0009827	0.8330012	-19.4559	0.0210447	-0.9050401	0.0080601	-0.0053186	0.0001547	-0.0004583	-0.0067091	0.0024025	-0.0003049	-1.174212E-005	0.0049077	0.0021507	0.0002031	1.490116E-006	0.0005887	0.0029355	2.789497E-005	3.141165E-005	-0.004153	0.0089188	-0.0001464	0.0003982	-0.0027101	-0.0023236	-0.0001168	-0.0001774	0.0058677	-0.0030233	0.0003033	-0.0001884	-0.0026455	-0.0017912	-0.0001321	-0.0001206	-0.0019043	-0.00283	-0.0000994	-0.0001637
	44	121	0.400641	0.0465619	-0.0009992	1	0.0465726	-1.229308	0.0465448	-0.0009993	0.0465556	-1.229902	-0.0432433	3.441666	12	0.2146053	0.0099947	-327.5556	0.0016841	0.0014855	0.8703064	-19.40435	0.0211346	-0.9043723	0.0126272	0.0167305	0.0003374	0.0005086	0.0161882	-0.0024137	0.0007761	-0.0003169	0.0004728	0.0090759	3.695488E-005	0.0003189	-0.0054177	-0.003293	-0.0002515	-0.0002919	-0.0077822	0.0034833	-0.000376	0.0000976	0.00781	-0.0008506	0.0003583	-0.0001023	0.0003783	-0.0014816	2.980232E-005	-0.0001017	-0.0041352	-0.0065301	-0.0001979	-0.0002847	0.0045499	0.0047747	0.0002005	0.000133
	45	135	0.316723	0.0466612	-0.0011192	1	0.0466746	-1.374049	0.0466423	-0.0011184	0.0466557	-1.373556	-0.042443	3.441669	12	0.2144609	0.0100099	-327.5556	0.0018674	0.0016792	0.9369513	-19.38816	0.0220191	-0.9057236	0.0163633	0.004382	0.0005758	-5.310775E-005	-0.0010582	0.0073217	-2.336502E-005	0.000192	-0.0130698	-0.0054363	-0.0005865	-0.0003795	-0.0054624	0.0160156	-0.0002179	0.0006353	0.016423	-0.0086376	0.0007558	-0.0004724	0.0025449	0.0053568	0.0001187	0.0001559	0.0029103	0.0041387	0.0001292	0.0001515	0.0033477	0.0073761	0.0001709	0.0003065	-0.0014041	0.003582	-6.699563E-005	6.043911E-005
	46	149	0.2520161	0.0467846	-0.0012526	1	0.0468014	-1.533709	0.0467606	-0.0012534	0.0467774	-1.535429	-0.0417042	3.44166	12	0.2132441	0.0099801	-327.5556	0.0018465	0.0017538	-0.3336802	-19.29776	-0.0413845	-0.9023452	0.0030628	0.005422	-2.503395E-005	-6.213785E-005	0.0057019	-0.0053624	0.0002491	-0.0004508	0.012602	0.0163958	0.0006166	0.0005246	0.0015617	-0.0046482	6.318092E-005	-0.0003208	-0.0127965	0.0064648	-0.0005968	0.0002354	-0.0046727	0.0058039	-0.0001838	0.0002182	0.0046414	0.0002675	0.0002308	-4.506112E-005	-0.0026688	-0.0164789	-0.0001323	-0.0008093	0.0080557	0.0096009	0.0003779	0.0003377
	47	167	0.2003205	0.0469156	-0.0014159	1	0.046937	-1.728692	0.0468869	-0.0014157	0.0469082	-1.72941	-0.0404923	3.44166	12	0.2131977	0.0100068	-327.5556	0.0011573	0.001121	-0.0103578	-19.29645	-0.0290835	-0.9052481	0.0047941	0.0038059	4.053116E-005	-0.0001306	0.0015307	0.0066119	0.0001187	7.57575E-005	0.0051451	-0.0083656	0.0002394	-0.0004633	-0.0067371	0.0043664	-0.0003076	8.714199E-005	0.0040422	-0.0020493	0.0002396	-0.0002024	0.002992	0.0047773	0.0001674	0.0001333	0.001065	-0.0116371	4.196167E-005	-0.0005982	0.002706	0.0017145	0.0001383	2.95639E-005	0.0056991	0.0047569	0.0002716	0.0001441
	48	194	0.1588983	0.047059	-0.0016049	1	0.0470864	-1.953285	0.04703	-0.0016044	0.0470574	-1.953795	-0.0394209	3.441654	12	0.2123233	0.0099975	-327.5556	0.0020292	0.0016935	0.2730771	-19.21537	-0.0189986	-0.9046736	0.0191115	0.0155205	0.0008044	0.0003045	-0.0129615	0.0037998	-0.0005922	-7.891656E-005	0.0063829	0.003268	0.0003054	5.239248E-005	-0.0026076	0.0031712	-0.0000954	3.069639E-005	-0.0122533	0.0112619	-0.0004861	0.0004164	-0.0059303	0.0038012	-0.0002527	8.618832E-005	-0.0097353	-0.0061773	-0.0004346	-0.0003307	-0.0073995	0.0011093	-0.0003066	1.430512E-006	0.0115257	0.0039307	0.0005178	6.330013E-005
	49	220	0.1260081	0.0472397	-0.0018269	1	0.047275	-2.214712	0.0471977	-0.0018263	0.047233	-2.21593	-0.0384912	3.441657	12	0.2116498	0.0100057	-327.5556	0.0013888	0.0010582	0.5436729	-19.14864	-0.0101016	-0.9055595	0.0111672	0.0147011	0.0004325	0.0000986	0.0014781	0.0066546	0.0001569	1.40667E-005	0.0039553	0.0009786	0.000181	-0.0001631	-0.0015123	0.0019802	-7.343293E-005	-4.440547E-005	0.0012546	0.0041122	8.249283E-005	5.00679E-005	-0.0016372	0.0026126	-3.695489E-005	3.20673E-005	-0.002505	-0.0101288	-0.0001123	-0.0005558	0.0050671	-0.0050154	0.0002224	-0.0003085	-0.0036676	0.0098272	-0.0001571	0.000357
	50	259	0.1001603	0.0474923	-0.0020783	1	0.0475378	-2.505702	0.0473978	-0.0020727	0.0474431	-2.503889	-0.0388986	3.441661	12	0.2103494	0.0099995	-327.5556	0.002238	0.001343	0.7681895	-19.02315	-0.0036893	-0.9050478	0.0099784	0.0207669	0.000524	-0.0002274	0.0070336	0.0208116	0.0005074	0.0003145	-0.0016002	0.0090765	4.172325E-005	-0.0001248	-0.009924	0.0118142	-0.0003343	0.0001631	-0.001741	0.013655	1.573563E-005	0.0003141	0.005457	0.006437	0.0003169	1.502037E-005	-0.0010853	0.010873	1.311302E-005	0.0002831	-0.0071728	-0.006435	-0.0002983	-0.0005006	0.001362	0.0020689	0.0000985	-0.0001001
	51	296	0.0794492	0.0477382	-0.0023824	1	0.0477976	-2.857053	0.0475901	-0.0023713	0.0476492	-2.852598	-0.0393031	3.441663	12	0.2092294	0.0100007	-327.5556	0.0026164	0.0009399	0.982684	-18.91177	0.0013504	-0.9051562	0.0066026	0.0333991	0.0004623	-0.0001315	-0.0064083	0.0173793	-9.441377E-005	-0.0001661	-0.0099659	0.012708	-0.0003331	-0.0001104	-0.0004817	0.0109572	9.346008E-005	-7.337333E-005	-0.0009564	0.0071785	7.033348E-005	-0.0001278	-0.0013905	0.008342	2.837181E-005	-4.86374E-005	-0.0083369	0.0154499	-0.0002563	0.000348	-0.0062091	0.0071697	-0.0002184	2.598762E-005	0.0036884	0.0059879	0.0002394	-4.696847E-005
	52	336	0.0631739	0.0478907	-0.002759	1	0.0479701	-3.297143	0.047825	-0.0027528	0.0479042	-3.294265	-0.0353639	3.441669	12	0.2084301	0.0099984	-327.5556	0.0016502	0.0011373	1.205584	-18.82638	0.0053935	-0.904936	0.0124197	0.0208756	0.0007334	-6.496907E-005	-0.0033411	0.0084599	1.645088E-005	-5.364419E-005	-0.0038801	-0.0006796	-8.320809E-005	-0.0002756	-0.0054999	0.0021674	-0.0001931	-0.0001351	-0.0081172	4.514027E-005	-0.0003519	-0.0001805	0.0012752	0.0080355	7.081032E-005	0.0001894	-0.0046243	0.0002117	-0.0001845	-0.0001475	-0.0078602	0.0029713	-0.0003417	-8.702279E-006	-0.001466	0.0044243	-5.722047E-005	4.923344E-005
	53	386	0.0501337	0.0481613	-0.0031988	1	0.0482674	-3.799877	0.0480945	-0.0031907	0.0482002	-3.79557	-0.0334418	3.441664	12	0.2072987	0.0100058	-327.5556	0.0020545	0.0010485	1.426192	-18.70826	0.0085251	-0.9055786	-0.0004023	0.0276245	0.0003607	0.0002368	-0.0094503	0.0078096	-0.0002165	-5.334617E-005	-0.0041527	0.0087079	-0.0000999	0.0001258	-0.0040285	0.0085528	-0.0001247	0.0001546	-0.0029477	0.0165329	-0.0001185	0.0006001	0.002323	0.0048731	0.0001345	3.886223E-005	0.0011357	0.0034131	0.0001068	4.017353E-005	0.0029173	0.0009236	0.0001254	-8.106233E-005	-0.0069587	-0.0028172	-0.0003209	-0.0002617
	54	447	0.0398258	0.0484618	-0.0037262	1	0.0486049	-4.396821	0.0484044	-0.0037165	0.0485469	-4.39057	-0.0308584	3.441658	12	0.2056877	0.0099974	-327.5556	0.001651	0.0006367	1.658379	-18.54272	0.0110207	-0.9047967	-0.0034559	0.0221484	0.0003009	-1.522899E-005	-0.0066427	0.0117735	-4.124642E-005	0.0001633	-0.001654	0.0077158	4.267693E-005	0.0001309	-0.0007223	-0.0006133	6.437302E-006	-0.0002518	-0.0021032	0.005642	-5.650521E-005	0.0000958	-0.0023827	0.0077906	-7.82013E-005	0.0001962	-0.0025458	0.0076776	-7.915498E-005	0.0002118	0.0026839	0.0040602	0.00014	3.015995E-005	1.581758E-005	0.0021382	1.621246E-005	-3.898145E-005
	55	550	0.0316296	0.0488438	-0.0043537	1	0.0490374	-5.093555	0.0487746	-0.0043427	0.0489676	-5.088012	-0.0285477	3.441652	12	0.2039971	0.0100035	-327.5556	0.0017897	0.0005313	1.913238	-18.36432	0.0132968	-0.905315	-0.0085784	0.0270134	0.0002673	3.865361E-005	-0.0071683	0.0084022	9.536743E-006	-8.338691E-005	-0.0034727	0.0016382	-1.430512E-005	-0.0001669	-0.0058814	0.0056959	-0.0002296	6.41942E-005	0.0004676	0.0029457	6.246567E-005	-5.722047E-005	0.0002804	0.0025543	6.532669E-005	-8.177758E-005	-0.0030626	0.0039783	-0.0001163	1.072884E-006	0.0010628	0.0063493	7.271767E-005	0.0001487	-0.0007194	0.001487	-2.861023E-006	-8.630754E-005
	56	647	0.0251206	0.0493033	-0.0050904	1	0.0495654	-5.894708	0.0492282	-0.0050756	0.0494892	-5.886646	-0.0262878	3.441656	12	0.2017668	0.0100006	-327.5556	0.0021384	0.0005626	2.171386	-18.1323	0.0145962	-0.9050375	-0.0122405	0.0307576	0.0002966	0.0001454	-0.0116009	0.0082836	-0.0001042	-1.442432E-005	-0.0062292	0.0067263	-0.0001183	8.279085E-005	-0.0012778	0.0054679	-1.335144E-005	5.960464E-005	-0.00318	0.0050923	-0.000129	4.905462E-005	0.0024065	0.0056606	0.0001309	5.531311E-005	5.106954E-005	0.0039399	1.931191E-005	-2.074242E-005	-0.0007099	0.0041041	2.384186E-006	2.110004E-005	0.0013496	-0.0013406	8.797646E-005	-0.0002576
	57	768	0.0199553	0.0498556	-0.0059461	1	0.050209	-6.801352	0.049773	-0.0059274	0.0501247	-6.791341	-0.0238837	3.441651	12	0.1992058	0.0100019	-327.5556	0.0023291	0.0005606	2.449086	-17.86295	0.0157588	-0.9051335	-0.0207872	0.0328181	8.606911E-005	0.0001127	-0.0122972	0.0024648	-3.552438E-005	-0.0002857	-0.0037396	0.0029225	3.838539E-005	-8.004905E-005	-0.0022766	0.0042468	-6.1512E-005	-1.162291E-005	0.0031586	0.0026166	0.0001717	-0.000109	0.0012382	0.0012981	3.886223E-005	-0.000174	0.0004751	-0.0005541	7.43866E-005	-0.0002326	0.0001617	0.0031574	3.385544E-005	-5.447866E-005	-0.0022242	0.0039734	-7.534028E-005	1.382828E-005
	58	921	0.0158522	0.0505505	-0.0069281	1	0.051023	-7.803936	0.050463	-0.0069032	0.050933	-7.789505	-0.0213024	3.441646	12	0.1960383	0.0100025	-327.5556	0.0024153	0.0005178	2.735117	-17.53128	0.0167024	-0.9051657	-0.0226117	0.0326605	0.000308	0.0000991	-0.0097697	0.0066054	0.0001884	-3.117323E-005	-0.0030982	0.0052548	0.0001009	8.267164E-005	-1.023989E-005	0.0027435	4.029274E-005	-6.848575E-005	0.0007536	0.0040661	1.311302E-005	-1.722574E-005	-0.0012888	0.003031	-7.82013E-005	-0.0001165	-0.0012955	0.0039626	-8.821488E-006	-3.70741E-005	-0.0003236	0.0041437	4.220009E-005	1.299381E-005	0.0026274	0.0022875	0.0001538	-9.000302E-005
	59	1112	0.0125907	0.0513149	-0.0080377	1	0.0519406	-8.90215	0.0512265	-0.0080107	0.0518491	-8.887861	-0.0180479	3.441652	12	0.1925998	0.0100037	-327.5556	0.0027321	0.0003772	3.028713	-17.16702	0.0173552	-0.9052691	-0.0276414	0.0330939	0.0002003	0.0001149	-0.013149	0.0056212	4.172325E-005	6.139278E-006	-0.0046796	0.0027357	2.622604E-005	-2.723932E-005	-0.00154	0.0019323	-4.625321E-005	-7.259847E-005	0.0002218	0.0072055	1.0252E-005	0.0001407	0.0007806	0.0052999	5.078316E-005	-1.001358E-005	-0.0012932	0.0054747	-3.361703E-005	3.0756E-005	-0.0008715	0.0041715	4.291534E-006	4.172325E-006	-0.004521	0.0042497	-0.0001667	1.454353E-005
	60	1432	0.0100011	0.0522803	-0.0092681	1	0.0530954	-10.05282	0.0521847	-0.0092337	0.0529953	-10.03419	-0.0152377	3.441646	12	0.1883543	0.0100008	-327.5556	0.0027785	0.0004302	3.303572	-16.72474	0.0176411	-0.904993	-0.0311569	0.0296119	0.0002584	-5.50449E-005	-0.0150292	0.0025842	4.053116E-006	-3.552438E-005	-0.0050153	0.0028212	5.76973E-005	1.496077E-005	0.0020631	0.0056751	0.0001304	0.0001094	0.0008092	0.0046286	2.861023E-006	-1.293421E-005	-0.0019826	0.0039716	-0.0001054	-9.179116E-005	0.0001574	0.0032123	2.145767E-005	-9.429456E-005	-0.0017489	0.0053601	-2.455712E-005	2.682209E-005	-0.0022603	0.0022119	-6.27041E-005	-0.0001169
