EXPLAIN
TAG	EISPOT
TITLE	LABEL	30Q_6	Test &Identifier
DATE	LABEL	6/25/2026	Date
TIME	LABEL	16:17:42	Time
NOTES	NOTES	6	&Notes...
	Potentiostatic EIS Data Test preformed on a 30Q battery.
	- 10 AC mV rms preformed on 6/25/26
	- 30Q_6
	- Custom Battery Holder Tray. Wood Base w/ reference aligator clips connected to center of banana plug.
	- No Floating Ground
	- No Faraday Cage
PSTAT	PSTAT	REF3000-51199	Potentiostat
VDC	POTEN	0.00000E+000	T	DC &Voltage (V)
FREQINIT	QUANT	1.00000E+004	Initial Fre&q. (Hz)
FREQFINAL	QUANT	1.00000E-002	Final Fre&q. (Hz)
PTSPERDEC	QUANT	1.00000E+001	Points/&decade
VAC	QUANT	1.00000E+001	AC &Voltage (mV rms)
AREA	QUANT	2.54000E+000	&Area (cm^2)
CONDIT	TWOPARAM	F	1.50000E+001	0.00000E+000	Conditionin&g	Time(s)	E(V)
DELAY	TWOPARAM	T	1.80000E+003	0.00000E+000	Init. De&lay	Time(s)	Stab.(mV/s)
SPEED	SELECTOR	1	&Optimize for:
THD	SELECTOR	1	T&HD
DRIFTCOR	SELECTOR	1	&Drift Correction
ZGUESS	QUANT	1.00000E-001	E&stimated Z (ohms)
OCVCURVE	TABLE	718
	Pt	T	Vf	Vm	Ach	Over	Temp
	#	s	V vs. Ref.	V	V	bits	deg C
	0	2.50833	3.44643E+000	3.44643E+000	-3.67040E-004	...........	-327.56
	1	5.01667	3.44642E+000	3.44620E+000	-3.63167E-004	...........	-327.56
	2	7.525	3.44640E+000	3.44611E+000	-3.61307E-004	...........	-327.56
	3	10.0333	3.44634E+000	3.44608E+000	-3.64213E-004	...........	-327.56
	4	12.5417	3.44625E+000	3.44608E+000	-3.60920E-004	...........	-327.56
	5	15.05	3.44617E+000	3.44605E+000	-3.60187E-004	...........	-327.56
	6	17.5583	3.44611E+000	3.44606E+000	-3.58200E-004	...........	-327.56
	7	20.0667	3.44608E+000	3.44604E+000	-3.59727E-004	...........	-327.56
	8	22.575	3.44606E+000	3.44603E+000	-3.54993E-004	...........	-327.56
	9	25.0833	3.44605E+000	3.44603E+000	-3.58273E-004	...........	-327.56
	10	27.5917	3.44604E+000	3.44602E+000	-3.55527E-004	...........	-327.56
	11	30.1	3.44604E+000	3.44604E+000	-3.53487E-004	...........	-327.56
	12	32.6083	3.44603E+000	3.44604E+000	-3.59107E-004	...........	-327.56
	13	35.1167	3.44603E+000	3.44601E+000	-3.51033E-004	...........	-327.56
	14	37.625	3.44603E+000	3.44601E+000	-3.52967E-004	...........	-327.56
	15	40.1333	3.44603E+000	3.44602E+000	-3.55527E-004	...........	-327.56
	16	42.6417	3.44602E+000	3.44602E+000	-3.56827E-004	...........	-327.56
	17	45.15	3.44602E+000	3.44601E+000	-3.56747E-004	...........	-327.56
	18	47.6583	3.44602E+000	3.44599E+000	-3.50220E-004	...........	-327.56
	19	50.1667	3.44601E+000	3.44601E+000	-3.55687E-004	...........	-327.56
	20	52.675	3.44601E+000	3.44601E+000	-3.53853E-004	...........	-327.56
	21	55.1833	3.44601E+000	3.44599E+000	-3.55993E-004	...........	-327.56
	22	57.6917	3.44600E+000	3.44599E+000	-3.50300E-004	...........	-327.56
	23	60.2	3.44600E+000	3.44600E+000	-3.54840E-004	...........	-327.56
	24	62.7083	3.44600E+000	3.44599E+000	-3.56040E-004	...........	-327.56
	25	65.2167	3.44600E+000	3.44600E+000	-3.55560E-004	...........	-327.56
	26	67.725	3.44600E+000	3.44599E+000	-3.55367E-004	...........	-327.56
	27	70.2333	3.44600E+000	3.44603E+000	-3.56087E-004	...........	-327.56
	28	72.7417	3.44600E+000	3.44598E+000	-3.61333E-004	...........	-327.56
	29	75.25	3.44600E+000	3.44600E+000	-3.57727E-004	...........	-327.56
	30	77.7583	3.44600E+000	3.44600E+000	-3.56853E-004	...........	-327.56
	31	80.2667	3.44600E+000	3.44600E+000	-3.54320E-004	...........	-327.56
	32	82.775	3.44600E+000	3.44599E+000	-3.57240E-004	...........	-327.56
	33	85.2833	3.44600E+000	3.44602E+000	-3.58453E-004	...........	-327.56
	34	87.7917	3.44600E+000	3.44601E+000	-3.55920E-004	...........	-327.56
	35	90.3	3.44600E+000	3.44601E+000	-3.52213E-004	...........	-327.56
	36	92.8083	3.44601E+000	3.44601E+000	-3.56393E-004	...........	-327.56
	37	95.317	3.44601E+000	3.44600E+000	-3.57927E-004	...........	-327.56
	38	97.825	3.44601E+000	3.44601E+000	-3.51473E-004	...........	-327.56
	39	100.333	3.44601E+000	3.44601E+000	-3.59007E-004	...........	-327.56
	40	102.842	3.44601E+000	3.44599E+000	-3.54433E-004	...........	-327.56
	41	105.35	3.44601E+000	3.44600E+000	-3.54600E-004	...........	-327.56
	42	107.858	3.44600E+000	3.44600E+000	-3.57327E-004	...........	-327.56
	43	110.367	3.44600E+000	3.44603E+000	-3.59260E-004	...........	-327.56
	44	112.875	3.44600E+000	3.44599E+000	-3.53800E-004	...........	-327.56
	45	115.383	3.44600E+000	3.44599E+000	-3.54327E-004	...........	-327.56
	46	117.892	3.44600E+000	3.44600E+000	-3.58807E-004	...........	-327.56
	47	120.4	3.44600E+000	3.44600E+000	-3.59213E-004	...........	-327.56
	48	122.908	3.44600E+000	3.44599E+000	-3.55520E-004	...........	-327.56
	49	125.417	3.44600E+000	3.44600E+000	-3.55400E-004	...........	-327.56
	50	127.925	3.44600E+000	3.44602E+000	-3.57167E-004	...........	-327.56
	51	130.433	3.44600E+000	3.44599E+000	-3.56400E-004	...........	-327.56
	52	132.942	3.44600E+000	3.44601E+000	-3.61027E-004	...........	-327.56
	53	135.45	3.44601E+000	3.44603E+000	-3.57793E-004	...........	-327.56
	54	137.958	3.44601E+000	3.44606E+000	-3.59873E-004	...........	-327.56
	55	140.467	3.44602E+000	3.44605E+000	-3.55760E-004	...........	-327.56
	56	142.975	3.44603E+000	3.44602E+000	-3.57067E-004	...........	-327.56
	57	145.483	3.44604E+000	3.44606E+000	-3.60780E-004	...........	-327.56
	58	147.992	3.44604E+000	3.44604E+000	-3.57773E-004	...........	-327.56
	59	150.5	3.44604E+000	3.44601E+000	-3.58947E-004	...........	-327.56
	60	153.008	3.44604E+000	3.44605E+000	-3.54653E-004	...........	-327.56
	61	155.517	3.44604E+000	3.44601E+000	-3.58313E-004	...........	-327.56
	62	158.025	3.44603E+000	3.44600E+000	-3.61100E-004	...........	-327.56
	63	160.533	3.44603E+000	3.44600E+000	-3.57973E-004	...........	-327.56
	64	163.042	3.44602E+000	3.44601E+000	-3.53867E-004	...........	-327.56
	65	165.55	3.44601E+000	3.44600E+000	-3.55320E-004	...........	-327.56
	66	168.058	3.44601E+000	3.44601E+000	-3.56220E-004	...........	-327.56
	67	170.567	3.44601E+000	3.44601E+000	-3.56920E-004	...........	-327.56
	68	173.075	3.44601E+000	3.44601E+000	-3.58213E-004	...........	-327.56
	69	175.583	3.44601E+000	3.44599E+000	-3.54773E-004	...........	-327.56
	70	178.092	3.44601E+000	3.44601E+000	-3.58447E-004	...........	-327.56
	71	180.6	3.44601E+000	3.44602E+000	-3.60893E-004	...........	-327.56
	72	183.108	3.44601E+000	3.44600E+000	-3.59527E-004	...........	-327.56
	73	185.617	3.44601E+000	3.44600E+000	-3.55860E-004	...........	-327.56
	74	188.125	3.44601E+000	3.44603E+000	-3.60820E-004	...........	-327.56
	75	190.633	3.44601E+000	3.44601E+000	-3.56720E-004	...........	-327.56
	76	193.142	3.44601E+000	3.44600E+000	-3.53367E-004	...........	-327.56
	77	195.65	3.44601E+000	3.44601E+000	-3.52587E-004	...........	-327.56
	78	198.158	3.44601E+000	3.44601E+000	-3.55873E-004	...........	-327.56
	79	200.667	3.44601E+000	3.44600E+000	-3.54720E-004	...........	-327.56
	80	203.175	3.44601E+000	3.44601E+000	-3.55827E-004	...........	-327.56
	81	205.683	3.44601E+000	3.44602E+000	-3.56893E-004	...........	-327.56
	82	208.192	3.44601E+000	3.44600E+000	-3.58000E-004	...........	-327.56
	83	210.7	3.44601E+000	3.44600E+000	-3.51453E-004	...........	-327.56
	84	213.208	3.44601E+000	3.44601E+000	-3.58487E-004	...........	-327.56
	85	215.717	3.44601E+000	3.44602E+000	-3.58293E-004	...........	-327.56
	86	218.225	3.44601E+000	3.44602E+000	-3.56140E-004	...........	-327.56
	87	220.733	3.44601E+000	3.44601E+000	-3.57027E-004	...........	-327.56
	88	223.242	3.44601E+000	3.44600E+000	-3.56180E-004	...........	-327.56
	89	225.75	3.44601E+000	3.44602E+000	-3.62007E-004	...........	-327.56
	90	228.258	3.44601E+000	3.44603E+000	-3.60513E-004	...........	-327.56
	91	230.767	3.44601E+000	3.44601E+000	-3.60560E-004	...........	-327.56
	92	233.275	3.44602E+000	3.44601E+000	-3.57520E-004	...........	-327.56
	93	235.783	3.44602E+000	3.44600E+000	-3.62513E-004	...........	-327.56
	94	238.292	3.44602E+000	3.44601E+000	-3.58867E-004	...........	-327.56
	95	240.8	3.44601E+000	3.44602E+000	-3.64420E-004	...........	-327.56
	96	243.308	3.44601E+000	3.44600E+000	-3.61360E-004	...........	-327.56
	97	245.817	3.44601E+000	3.44602E+000	-3.58873E-004	...........	-327.56
	98	248.325	3.44601E+000	3.44602E+000	-3.58947E-004	...........	-327.56
	99	250.833	3.44601E+000	3.44601E+000	-3.60327E-004	...........	-327.56
	100	253.342	3.44601E+000	3.44600E+000	-3.54673E-004	...........	-327.56
	101	255.85	3.44601E+000	3.44603E+000	-3.57560E-004	...........	-327.56
	102	258.358	3.44601E+000	3.44601E+000	-3.55300E-004	...........	-327.56
	103	260.867	3.44601E+000	3.44602E+000	-3.55880E-004	...........	-327.56
	104	263.375	3.44602E+000	3.44601E+000	-3.56320E-004	...........	-327.56
	105	265.883	3.44602E+000	3.44600E+000	-3.54640E-004	...........	-327.56
	106	268.392	3.44602E+000	3.44603E+000	-3.55553E-004	...........	-327.56
	107	270.9	3.44601E+000	3.44601E+000	-3.60007E-004	...........	-327.56
	108	273.408	3.44601E+000	3.44600E+000	-3.57813E-004	...........	-327.56
	109	275.917	3.44601E+000	3.44602E+000	-3.60507E-004	...........	-327.56
	110	278.425	3.44601E+000	3.44600E+000	-3.57453E-004	...........	-327.56
	111	280.933	3.44601E+000	3.44600E+000	-3.53747E-004	...........	-327.56
	112	283.442	3.44601E+000	3.44602E+000	-3.59660E-004	...........	-327.56
	113	285.95	3.44601E+000	3.44600E+000	-3.57533E-004	...........	-327.56
	114	288.458	3.44601E+000	3.44601E+000	-3.56867E-004	...........	-327.56
	115	290.967	3.44601E+000	3.44599E+000	-3.56873E-004	...........	-327.56
	116	293.475	3.44600E+000	3.44599E+000	-3.54307E-004	...........	-327.56
	117	295.983	3.44600E+000	3.44603E+000	-3.52347E-004	...........	-327.56
	118	298.492	3.44600E+000	3.44602E+000	-3.54573E-004	...........	-327.56
	119	301	3.44600E+000	3.44602E+000	-3.57240E-004	...........	-327.56
	120	303.508	3.44601E+000	3.44606E+000	-3.60400E-004	...........	-327.56
	121	306.017	3.44602E+000	3.44603E+000	-3.59047E-004	...........	-327.56
	122	308.525	3.44603E+000	3.44603E+000	-3.56560E-004	...........	-327.56
	123	311.033	3.44604E+000	3.44603E+000	-3.54753E-004	...........	-327.56
	124	313.542	3.44604E+000	3.44603E+000	-3.58933E-004	...........	-327.56
	125	316.05	3.44604E+000	3.44605E+000	-3.56647E-004	...........	-327.56
	126	318.558	3.44604E+000	3.44604E+000	-3.57587E-004	...........	-327.56
	127	321.067	3.44604E+000	3.44603E+000	-3.57553E-004	...........	-327.56
	128	323.575	3.44604E+000	3.44601E+000	-3.60653E-004	...........	-327.56
	129	326.083	3.44604E+000	3.44600E+000	-3.58520E-004	...........	-327.56
	130	328.592	3.44603E+000	3.44601E+000	-3.54400E-004	...........	-327.56
	131	331.1	3.44602E+000	3.44604E+000	-3.57447E-004	...........	-327.56
	132	333.608	3.44601E+000	3.44601E+000	-3.55567E-004	...........	-327.56
	133	336.117	3.44601E+000	3.44601E+000	-3.57213E-004	...........	-327.56
	134	338.625	3.44602E+000	3.44600E+000	-3.54813E-004	...........	-327.56
	135	341.133	3.44602E+000	3.44601E+000	-3.52187E-004	...........	-327.56
	136	343.642	3.44601E+000	3.44600E+000	-3.56173E-004	...........	-327.56
	137	346.15	3.44601E+000	3.44602E+000	-3.54560E-004	...........	-327.56
	138	348.658	3.44601E+000	3.44602E+000	-3.57240E-004	...........	-327.56
	139	351.167	3.44601E+000	3.44602E+000	-3.57460E-004	...........	-327.56
	140	353.675	3.44601E+000	3.44601E+000	-3.55860E-004	...........	-327.56
	141	356.183	3.44602E+000	3.44603E+000	-3.56873E-004	...........	-327.56
	142	358.692	3.44602E+000	3.44602E+000	-3.56160E-004	...........	-327.56
	143	361.2	3.44602E+000	3.44601E+000	-3.55573E-004	...........	-327.56
	144	363.708	3.44602E+000	3.44602E+000	-3.57793E-004	...........	-327.56
	145	366.217	3.44602E+000	3.44604E+000	-3.58067E-004	...........	-327.56
	146	368.725	3.44602E+000	3.44603E+000	-3.52807E-004	...........	-327.56
	147	371.233	3.44602E+000	3.44603E+000	-3.61313E-004	...........	-327.56
	148	373.742	3.44603E+000	3.44604E+000	-3.56120E-004	...........	-327.56
	149	376.25	3.44603E+000	3.44601E+000	-3.61913E-004	...........	-327.56
	150	378.758	3.44603E+000	3.44602E+000	-3.60873E-004	...........	-327.56
	151	381.267	3.44603E+000	3.44603E+000	-3.61513E-004	...........	-327.56
	152	383.775	3.44603E+000	3.44603E+000	-3.57727E-004	...........	-327.56
	153	386.283	3.44602E+000	3.44602E+000	-3.56540E-004	...........	-327.56
	154	388.792	3.44602E+000	3.44602E+000	-3.55693E-004	...........	-327.56
	155	391.3	3.44602E+000	3.44603E+000	-3.53987E-004	...........	-327.56
	156	393.808	3.44602E+000	3.44602E+000	-3.54380E-004	...........	-327.56
	157	396.317	3.44602E+000	3.44604E+000	-3.57093E-004	...........	-327.56
	158	398.825	3.44603E+000	3.44600E+000	-3.59353E-004	...........	-327.56
	159	401.333	3.44603E+000	3.44602E+000	-3.55847E-004	...........	-327.56
	160	403.842	3.44602E+000	3.44603E+000	-3.56773E-004	...........	-327.56
	161	406.35	3.44602E+000	3.44602E+000	-3.56400E-004	...........	-327.56
	162	408.858	3.44602E+000	3.44602E+000	-3.58320E-004	...........	-327.56
	163	411.367	3.44602E+000	3.44603E+000	-3.56713E-004	...........	-327.56
	164	413.875	3.44602E+000	3.44603E+000	-3.62640E-004	...........	-327.56
	165	416.383	3.44603E+000	3.44604E+000	-3.58033E-004	...........	-327.56
	166	418.892	3.44603E+000	3.44603E+000	-3.57827E-004	...........	-327.56
	167	421.4	3.44603E+000	3.44602E+000	-3.55087E-004	...........	-327.56
	168	423.908	3.44603E+000	3.44604E+000	-3.54780E-004	...........	-327.56
	169	426.417	3.44603E+000	3.44602E+000	-3.57167E-004	...........	-327.56
	170	428.925	3.44603E+000	3.44602E+000	-3.58620E-004	...........	-327.56
	171	431.433	3.44603E+000	3.44604E+000	-3.56833E-004	...........	-327.56
	172	433.942	3.44603E+000	3.44602E+000	-3.57953E-004	...........	-327.56
	173	436.45	3.44602E+000	3.44603E+000	-3.59367E-004	...........	-327.56
	174	438.958	3.44602E+000	3.44604E+000	-3.58140E-004	...........	-327.56
	175	441.467	3.44603E+000	3.44602E+000	-3.62340E-004	...........	-327.56
	176	443.975	3.44603E+000	3.44602E+000	-3.60387E-004	...........	-327.56
	177	446.483	3.44603E+000	3.44604E+000	-3.61033E-004	...........	-327.56
	178	448.992	3.44603E+000	3.44605E+000	-3.61753E-004	...........	-327.56
	179	451.5	3.44603E+000	3.44604E+000	-3.57627E-004	...........	-327.56
	180	454.008	3.44604E+000	3.44603E+000	-3.57713E-004	...........	-327.56
	181	456.517	3.44604E+000	3.44603E+000	-3.59407E-004	...........	-327.56
	182	459.025	3.44604E+000	3.44604E+000	-3.61227E-004	...........	-327.56
	183	461.533	3.44604E+000	3.44604E+000	-3.60720E-004	...........	-327.56
	184	464.042	3.44604E+000	3.44603E+000	-3.59880E-004	...........	-327.56
	185	466.55	3.44603E+000	3.44601E+000	-3.61767E-004	...........	-327.56
	186	469.058	3.44603E+000	3.44604E+000	-3.63513E-004	...........	-327.56
	187	471.567	3.44603E+000	3.44602E+000	-3.63233E-004	...........	-327.56
	188	474.075	3.44603E+000	3.44603E+000	-3.61387E-004	...........	-327.56
	189	476.583	3.44603E+000	3.44603E+000	-3.61687E-004	...........	-327.56
	190	479.092	3.44603E+000	3.44603E+000	-3.58113E-004	...........	-327.56
	191	481.6	3.44603E+000	3.44607E+000	-3.58033E-004	...........	-327.56
	192	484.108	3.44603E+000	3.44605E+000	-3.58960E-004	...........	-327.56
	193	486.617	3.44604E+000	3.44607E+000	-3.62340E-004	...........	-327.56
	194	489.125	3.44605E+000	3.44602E+000	-3.61140E-004	...........	-327.56
	195	491.633	3.44605E+000	3.44603E+000	-3.63960E-004	...........	-327.56
	196	494.142	3.44605E+000	3.44602E+000	-3.57213E-004	...........	-327.56
	197	496.65	3.44604E+000	3.44605E+000	-3.65440E-004	...........	-327.56
	198	499.158	3.44604E+000	3.44603E+000	-3.64713E-004	...........	-327.56
	199	501.667	3.44603E+000	3.44603E+000	-3.65207E-004	...........	-327.56
	200	504.175	3.44604E+000	3.44602E+000	-3.60347E-004	...........	-327.56
	201	506.683	3.44603E+000	3.44602E+000	-3.58620E-004	...........	-327.56
	202	509.192	3.44603E+000	3.44603E+000	-3.62653E-004	...........	-327.56
	203	511.7	3.44603E+000	3.44604E+000	-3.61907E-004	...........	-327.56
	204	514.208	3.44603E+000	3.44603E+000	-3.64480E-004	...........	-327.56
	205	516.717	3.44603E+000	3.44604E+000	-3.61373E-004	...........	-327.56
	206	519.225	3.44603E+000	3.44603E+000	-3.66027E-004	...........	-327.56
	207	521.733	3.44603E+000	3.44602E+000	-3.62687E-004	...........	-327.56
	208	524.242	3.44603E+000	3.44603E+000	-3.63080E-004	...........	-327.56
	209	526.75	3.44603E+000	3.44603E+000	-3.64360E-004	...........	-327.56
	210	529.258	3.44603E+000	3.44604E+000	-3.65327E-004	...........	-327.56
	211	531.767	3.44603E+000	3.44602E+000	-3.65480E-004	...........	-327.56
	212	534.275	3.44603E+000	3.44603E+000	-3.59547E-004	...........	-327.56
	213	536.783	3.44603E+000	3.44603E+000	-3.64620E-004	...........	-327.56
	214	539.292	3.44603E+000	3.44604E+000	-3.64507E-004	...........	-327.56
	215	541.8	3.44603E+000	3.44604E+000	-3.63947E-004	...........	-327.56
	216	544.308	3.44603E+000	3.44603E+000	-3.62687E-004	...........	-327.56
	217	546.817	3.44603E+000	3.44604E+000	-3.64720E-004	...........	-327.56
	218	549.325	3.44603E+000	3.44604E+000	-3.66233E-004	...........	-327.56
	219	551.833	3.44603E+000	3.44602E+000	-3.69907E-004	...........	-327.56
	220	554.342	3.44604E+000	3.44604E+000	-3.67507E-004	...........	-327.56
	221	556.85	3.44603E+000	3.44601E+000	-3.65407E-004	...........	-327.56
	222	559.358	3.44603E+000	3.44604E+000	-3.62873E-004	...........	-327.56
	223	561.867	3.44603E+000	3.44603E+000	-3.63920E-004	...........	-327.56
	224	564.375	3.44603E+000	3.44604E+000	-3.63247E-004	...........	-327.56
	225	566.883	3.44603E+000	3.44603E+000	-3.63207E-004	...........	-327.56
	226	569.392	3.44603E+000	3.44603E+000	-3.64973E-004	...........	-327.56
	227	571.9	3.44603E+000	3.44602E+000	-3.64607E-004	...........	-327.56
	228	574.408	3.44603E+000	3.44602E+000	-3.63533E-004	...........	-327.56
	229	576.917	3.44603E+000	3.44603E+000	-3.64293E-004	...........	-327.56
	230	579.425	3.44603E+000	3.44604E+000	-3.65747E-004	...........	-327.56
	231	581.933	3.44603E+000	3.44603E+000	-3.66600E-004	...........	-327.56
	232	584.442	3.44603E+000	3.44603E+000	-3.65627E-004	...........	-327.56
	233	586.95	3.44603E+000	3.44604E+000	-3.65260E-004	...........	-327.56
	234	589.458	3.44603E+000	3.44605E+000	-3.63687E-004	...........	-327.56
	235	591.967	3.44604E+000	3.44602E+000	-3.61480E-004	...........	-327.56
	236	594.475	3.44604E+000	3.44604E+000	-3.61860E-004	...........	-327.56
	237	596.983	3.44604E+000	3.44603E+000	-3.61487E-004	...........	-327.56
	238	599.492	3.44603E+000	3.44602E+000	-3.64653E-004	...........	-327.56
	239	602	3.44603E+000	3.44605E+000	-3.64340E-004	...........	-327.56
	240	604.508	3.44603E+000	3.44605E+000	-3.66393E-004	...........	-327.56
	241	607.017	3.44604E+000	3.44601E+000	-3.67300E-004	...........	-327.56
	242	609.525	3.44604E+000	3.44602E+000	-3.63600E-004	...........	-327.56
	243	612.033	3.44604E+000	3.44603E+000	-3.60400E-004	...........	-327.56
	244	614.542	3.44603E+000	3.44603E+000	-3.63580E-004	...........	-327.56
	245	617.05	3.44603E+000	3.44601E+000	-3.64667E-004	...........	-327.56
	246	619.558	3.44603E+000	3.44605E+000	-3.64067E-004	...........	-327.56
	247	622.067	3.44603E+000	3.44605E+000	-3.63693E-004	...........	-327.56
	248	624.575	3.44603E+000	3.44603E+000	-3.62827E-004	...........	-327.56
	249	627.083	3.44604E+000	3.44602E+000	-3.56713E-004	...........	-327.56
	250	629.592	3.44604E+000	3.44602E+000	-3.65567E-004	...........	-327.56
	251	632.1	3.44603E+000	3.44603E+000	-3.59613E-004	...........	-327.56
	252	634.608	3.44603E+000	3.44603E+000	-3.61493E-004	...........	-327.56
	253	637.117	3.44603E+000	3.44603E+000	-3.57680E-004	...........	-327.56
	254	639.625	3.44603E+000	3.44603E+000	-3.59287E-004	...........	-327.56
	255	642.133	3.44603E+000	3.44605E+000	-3.58853E-004	...........	-327.56
	256	644.642	3.44603E+000	3.44603E+000	-3.61487E-004	...........	-327.56
	257	647.15	3.44604E+000	3.44606E+000	-3.60613E-004	...........	-327.56
	258	649.658	3.44604E+000	3.44603E+000	-3.61147E-004	...........	-327.56
	259	652.167	3.44604E+000	3.44604E+000	-3.58527E-004	...........	-327.56
	260	654.675	3.44604E+000	3.44605E+000	-3.60540E-004	...........	-327.56
	261	657.183	3.44604E+000	3.44605E+000	-3.59900E-004	...........	-327.56
	262	659.692	3.44604E+000	3.44604E+000	-3.56973E-004	...........	-327.56
	263	662.2	3.44604E+000	3.44606E+000	-3.61727E-004	...........	-327.56
	264	664.708	3.44605E+000	3.44605E+000	-3.63300E-004	...........	-327.56
	265	667.217	3.44605E+000	3.44603E+000	-3.61607E-004	...........	-327.56
	266	669.725	3.44605E+000	3.44604E+000	-3.61347E-004	...........	-327.56
	267	672.233	3.44605E+000	3.44603E+000	-3.56073E-004	...........	-327.56
	268	674.742	3.44604E+000	3.44603E+000	-3.55793E-004	...........	-327.56
	269	677.25	3.44604E+000	3.44604E+000	-3.61627E-004	...........	-327.56
	270	679.758	3.44603E+000	3.44605E+000	-3.59413E-004	...........	-327.56
	271	682.267	3.44604E+000	3.44609E+000	-3.61367E-004	...........	-327.56
	272	684.775	3.44604E+000	3.44603E+000	-3.55167E-004	...........	-327.56
	273	687.283	3.44605E+000	3.44603E+000	-3.57187E-004	...........	-327.56
	274	689.792	3.44605E+000	3.44603E+000	-3.59553E-004	...........	-327.56
	275	692.3	3.44605E+000	3.44604E+000	-3.59873E-004	...........	-327.56
	276	694.808	3.44604E+000	3.44605E+000	-3.62307E-004	...........	-327.56
	277	697.317	3.44604E+000	3.44603E+000	-3.62967E-004	...........	-327.56
	278	699.825	3.44604E+000	3.44604E+000	-3.62747E-004	...........	-327.56
	279	702.333	3.44604E+000	3.44602E+000	-3.62380E-004	...........	-327.56
	280	704.842	3.44603E+000	3.44603E+000	-3.62400E-004	...........	-327.56
	281	707.35	3.44603E+000	3.44603E+000	-3.64433E-004	...........	-327.56
	282	709.858	3.44603E+000	3.44606E+000	-3.65920E-004	...........	-327.56
	283	712.367	3.44603E+000	3.44604E+000	-3.59247E-004	...........	-327.56
	284	714.875	3.44604E+000	3.44603E+000	-3.65627E-004	...........	-327.56
	285	717.383	3.44604E+000	3.44604E+000	-3.60793E-004	...........	-327.56
	286	719.892	3.44604E+000	3.44604E+000	-3.61707E-004	...........	-327.56
	287	722.4	3.44604E+000	3.44604E+000	-3.61880E-004	...........	-327.56
	288	724.908	3.44604E+000	3.44605E+000	-3.60867E-004	...........	-327.56
	289	727.417	3.44604E+000	3.44607E+000	-3.59140E-004	...........	-327.56
	290	729.925	3.44604E+000	3.44604E+000	-3.63240E-004	...........	-327.56
	291	732.433	3.44605E+000	3.44605E+000	-3.63620E-004	...........	-327.56
	292	734.942	3.44605E+000	3.44605E+000	-3.62007E-004	...........	-327.56
	293	737.45	3.44605E+000	3.44605E+000	-3.63273E-004	...........	-327.56
	294	739.958	3.44605E+000	3.44603E+000	-3.62907E-004	...........	-327.56
	295	742.467	3.44605E+000	3.44605E+000	-3.63580E-004	...........	-327.56
	296	744.975	3.44605E+000	3.44605E+000	-3.63240E-004	...........	-327.56
	297	747.483	3.44605E+000	3.44604E+000	-3.64347E-004	...........	-327.56
	298	749.992	3.44605E+000	3.44605E+000	-3.64293E-004	...........	-327.56
	299	752.5	3.44605E+000	3.44604E+000	-3.61793E-004	...........	-327.56
	300	755.008	3.44605E+000	3.44604E+000	-3.65147E-004	...........	-327.56
	301	757.517	3.44605E+000	3.44605E+000	-3.65433E-004	...........	-327.56
	302	760.025	3.44604E+000	3.44604E+000	-3.67613E-004	...........	-327.56
	303	762.533	3.44604E+000	3.44603E+000	-3.63700E-004	...........	-327.56
	304	765.042	3.44604E+000	3.44604E+000	-3.70153E-004	...........	-327.56
	305	767.55	3.44604E+000	3.44604E+000	-3.66553E-004	...........	-327.56
	306	770.058	3.44604E+000	3.44602E+000	-3.67093E-004	...........	-327.56
	307	772.567	3.44604E+000	3.44605E+000	-3.66520E-004	...........	-327.56
	308	775.075	3.44604E+000	3.44603E+000	-3.68880E-004	...........	-327.56
	309	777.583	3.44604E+000	3.44605E+000	-3.67253E-004	...........	-327.56
	310	780.092	3.44604E+000	3.44604E+000	-3.63933E-004	...........	-327.56
	311	782.6	3.44604E+000	3.44603E+000	-3.62507E-004	...........	-327.56
	312	785.108	3.44604E+000	3.44603E+000	-3.64713E-004	...........	-327.56
	313	787.617	3.44604E+000	3.44605E+000	-3.65960E-004	...........	-327.56
	314	790.125	3.44604E+000	3.44604E+000	-3.65667E-004	...........	-327.56
	315	792.633	3.44604E+000	3.44603E+000	-3.65940E-004	...........	-327.56
	316	795.142	3.44604E+000	3.44604E+000	-3.67240E-004	...........	-327.56
	317	797.65	3.44604E+000	3.44602E+000	-3.63513E-004	...........	-327.56
	318	800.158	3.44604E+000	3.44604E+000	-3.65880E-004	...........	-327.56
	319	802.667	3.44603E+000	3.44604E+000	-3.66680E-004	...........	-327.56
	320	805.175	3.44603E+000	3.44603E+000	-3.64633E-004	...........	-327.56
	321	807.683	3.44603E+000	3.44604E+000	-3.68953E-004	...........	-327.56
	322	810.192	3.44604E+000	3.44602E+000	-3.68120E-004	...........	-327.56
	323	812.7	3.44604E+000	3.44605E+000	-3.64620E-004	...........	-327.56
	324	815.208	3.44604E+000	3.44604E+000	-3.64733E-004	...........	-327.56
	325	817.717	3.44604E+000	3.44606E+000	-3.64220E-004	...........	-327.56
	326	820.225	3.44604E+000	3.44605E+000	-3.62467E-004	...........	-327.56
	327	822.733	3.44605E+000	3.44604E+000	-3.65087E-004	...........	-327.56
	328	825.242	3.44605E+000	3.44604E+000	-3.65740E-004	...........	-327.56
	329	827.75	3.44605E+000	3.44604E+000	-3.68540E-004	...........	-327.56
	330	830.258	3.44605E+000	3.44604E+000	-3.67787E-004	...........	-327.56
	331	832.767	3.44604E+000	3.44605E+000	-3.67487E-004	...........	-327.56
	332	835.275	3.44604E+000	3.44604E+000	-3.68693E-004	...........	-327.56
	333	837.783	3.44604E+000	3.44604E+000	-3.68113E-004	...........	-327.56
	334	840.292	3.44604E+000	3.44603E+000	-3.62207E-004	...........	-327.56
	335	842.8	3.44604E+000	3.44605E+000	-3.64753E-004	...........	-327.56
	336	845.308	3.44604E+000	3.44604E+000	-3.64560E-004	...........	-327.56
	337	847.817	3.44604E+000	3.44602E+000	-3.66593E-004	...........	-327.56
	338	850.325	3.44604E+000	3.44604E+000	-3.64493E-004	...........	-327.56
	339	852.833	3.44604E+000	3.44605E+000	-3.62293E-004	...........	-327.56
	340	855.342	3.44604E+000	3.44606E+000	-3.67100E-004	...........	-327.56
	341	857.85	3.44604E+000	3.44605E+000	-3.64387E-004	...........	-327.56
	342	860.358	3.44604E+000	3.44606E+000	-3.66933E-004	...........	-327.56
	343	862.867	3.44605E+000	3.44603E+000	-3.65753E-004	...........	-327.56
	344	865.375	3.44605E+000	3.44606E+000	-3.68267E-004	...........	-327.56
	345	867.883	3.44605E+000	3.44605E+000	-3.67453E-004	...........	-327.56
	346	870.392	3.44605E+000	3.44606E+000	-3.67867E-004	...........	-327.56
	347	872.9	3.44605E+000	3.44604E+000	-3.70240E-004	...........	-327.56
	348	875.408	3.44605E+000	3.44605E+000	-3.68353E-004	...........	-327.56
	349	877.917	3.44605E+000	3.44604E+000	-3.68560E-004	...........	-327.56
	350	880.425	3.44605E+000	3.44605E+000	-3.69320E-004	...........	-327.56
	351	882.933	3.44605E+000	3.44604E+000	-3.66393E-004	...........	-327.56
	352	885.442	3.44604E+000	3.44605E+000	-3.64813E-004	...........	-327.56
	353	887.95	3.44604E+000	3.44603E+000	-3.65987E-004	...........	-327.56
	354	890.458	3.44604E+000	3.44605E+000	-3.63080E-004	...........	-327.56
	355	892.967	3.44604E+000	3.44604E+000	-3.62347E-004	...........	-327.56
	356	895.475	3.44604E+000	3.44607E+000	-3.67153E-004	...........	-327.56
	357	897.983	3.44604E+000	3.44604E+000	-3.63680E-004	...........	-327.56
	358	900.492	3.44605E+000	3.44605E+000	-3.62380E-004	...........	-327.56
	359	903	3.44605E+000	3.44604E+000	-3.64640E-004	...........	-327.56
	360	905.508	3.44605E+000	3.44604E+000	-3.64833E-004	...........	-327.56
	361	908.017	3.44605E+000	3.44605E+000	-3.64860E-004	...........	-327.56
	362	910.525	3.44604E+000	3.44605E+000	-3.62367E-004	...........	-327.56
	363	913.033	3.44604E+000	3.44606E+000	-3.65927E-004	...........	-327.56
	364	915.542	3.44605E+000	3.44605E+000	-3.63760E-004	...........	-327.56
	365	918.05	3.44605E+000	3.44606E+000	-3.66273E-004	...........	-327.56
	366	920.558	3.44606E+000	3.44605E+000	-3.65420E-004	...........	-327.56
	367	923.067	3.44606E+000	3.44605E+000	-3.64860E-004	...........	-327.56
	368	925.575	3.44606E+000	3.44605E+000	-3.67673E-004	...........	-327.56
	369	928.083	3.44605E+000	3.44605E+000	-3.69940E-004	...........	-327.56
	370	930.592	3.44605E+000	3.44606E+000	-3.68653E-004	...........	-327.56
	371	933.1	3.44605E+000	3.44605E+000	-3.69080E-004	...........	-327.56
	372	935.608	3.44605E+000	3.44606E+000	-3.71487E-004	...........	-327.56
	373	938.117	3.44605E+000	3.44607E+000	-3.66833E-004	...........	-327.56
	374	940.625	3.44606E+000	3.44605E+000	-3.70153E-004	...........	-327.56
	375	943.133	3.44606E+000	3.44605E+000	-3.67367E-004	...........	-327.56
	376	945.642	3.44606E+000	3.44604E+000	-3.71680E-004	...........	-327.56
	377	948.15	3.44605E+000	3.44606E+000	-3.68253E-004	...........	-327.56
	378	950.66	3.44605E+000	3.44607E+000	-3.67507E-004	...........	-327.56
	379	953.17	3.44605E+000	3.44605E+000	-3.67920E-004	...........	-327.56
	380	955.68	3.44605E+000	3.44606E+000	-3.69633E-004	...........	-327.56
	381	958.18	3.44606E+000	3.44606E+000	-3.71667E-004	...........	-327.56
	382	960.69	3.44606E+000	3.44603E+000	-3.66200E-004	...........	-327.56
	383	963.2	3.44605E+000	3.44603E+000	-3.70240E-004	...........	-327.56
	384	965.71	3.44605E+000	3.44606E+000	-3.68000E-004	...........	-327.56
	385	968.22	3.44604E+000	3.44607E+000	-3.73280E-004	...........	-327.56
	386	970.73	3.44605E+000	3.44607E+000	-3.71787E-004	...........	-327.56
	387	973.23	3.44605E+000	3.44609E+000	-3.70520E-004	...........	-327.56
	388	975.74	3.44606E+000	3.44609E+000	-3.72893E-004	...........	-327.56
	389	978.25	3.44607E+000	3.44608E+000	-3.67840E-004	...........	-327.56
	390	980.76	3.44608E+000	3.44609E+000	-3.64087E-004	...........	-327.56
	391	983.27	3.44608E+000	3.44608E+000	-3.69133E-004	...........	-327.56
	392	985.78	3.44608E+000	3.44609E+000	-3.66307E-004	...........	-327.56
	393	988.28	3.44608E+000	3.44610E+000	-3.67207E-004	...........	-327.56
	394	990.79	3.44609E+000	3.44609E+000	-3.71753E-004	...........	-327.56
	395	993.3	3.44609E+000	3.44609E+000	-3.66127E-004	...........	-327.56
	396	995.81	3.44609E+000	3.44609E+000	-3.74540E-004	...........	-327.56
	397	998.32	3.44609E+000	3.44605E+000	-3.68653E-004	...........	-327.56
	398	1000.83	3.44609E+000	3.44604E+000	-3.71233E-004	...........	-327.56
	399	1003.33	3.44608E+000	3.44605E+000	-3.68993E-004	...........	-327.56
	400	1005.84	3.44606E+000	3.44606E+000	-3.68020E-004	...........	-327.56
	401	1008.35	3.44606E+000	3.44605E+000	-3.66907E-004	...........	-327.56
	402	1010.86	3.44605E+000	3.44604E+000	-3.67053E-004	...........	-327.56
	403	1013.37	3.44605E+000	3.44603E+000	-3.69593E-004	...........	-327.56
	404	1015.88	3.44605E+000	3.44607E+000	-3.70767E-004	...........	-327.56
	405	1018.38	3.44605E+000	3.44605E+000	-3.72333E-004	...........	-327.56
	406	1020.89	3.44605E+000	3.44606E+000	-3.69753E-004	...........	-327.56
	407	1023.4	3.44605E+000	3.44606E+000	-3.72527E-004	...........	-327.56
	408	1025.91	3.44605E+000	3.44606E+000	-3.71733E-004	...........	-327.56
	409	1028.42	3.44606E+000	3.44606E+000	-3.70120E-004	...........	-327.56
	410	1030.93	3.44606E+000	3.44605E+000	-3.71847E-004	...........	-327.56
	411	1033.43	3.44606E+000	3.44606E+000	-3.63913E-004	...........	-327.56
	412	1035.94	3.44606E+000	3.44604E+000	-3.66480E-004	...........	-327.56
	413	1038.45	3.44606E+000	3.44606E+000	-3.70500E-004	...........	-327.56
	414	1040.96	3.44605E+000	3.44605E+000	-3.67747E-004	...........	-327.56
	415	1043.47	3.44605E+000	3.44605E+000	-3.67020E-004	...........	-327.56
	416	1045.98	3.44605E+000	3.44606E+000	-3.71587E-004	...........	-327.56
	417	1048.48	3.44605E+000	3.44608E+000	-3.69007E-004	...........	-327.56
	418	1050.99	3.44606E+000	3.44606E+000	-3.69180E-004	...........	-327.56
	419	1053.5	3.44606E+000	3.44607E+000	-3.69407E-004	...........	-327.56
	420	1056.01	3.44606E+000	3.44609E+000	-3.68213E-004	...........	-327.56
	421	1058.52	3.44607E+000	3.44612E+000	-3.70493E-004	...........	-327.56
	422	1061.03	3.44608E+000	3.44609E+000	-3.65160E-004	...........	-327.56
	423	1063.53	3.44609E+000	3.44609E+000	-3.62460E-004	...........	-327.56
	424	1066.04	3.44610E+000	3.44610E+000	-3.64267E-004	...........	-327.56
	425	1068.55	3.44610E+000	3.44609E+000	-3.68120E-004	...........	-327.56
	426	1071.06	3.44610E+000	3.44607E+000	-3.68287E-004	...........	-327.56
	427	1073.57	3.44609E+000	3.44605E+000	-3.69400E-004	...........	-327.56
	428	1076.08	3.44609E+000	3.44609E+000	-3.64020E-004	...........	-327.56
	429	1078.58	3.44608E+000	3.44606E+000	-3.68333E-004	...........	-327.56
	430	1081.09	3.44607E+000	3.44606E+000	-3.63433E-004	...........	-327.56
	431	1083.6	3.44607E+000	3.44606E+000	-3.68073E-004	...........	-327.56
	432	1086.11	3.44607E+000	3.44607E+000	-3.65560E-004	...........	-327.56
	433	1088.62	3.44607E+000	3.44605E+000	-3.68253E-004	...........	-327.56
	434	1091.13	3.44606E+000	3.44605E+000	-3.65700E-004	...........	-327.56
	435	1093.63	3.44606E+000	3.44609E+000	-3.70267E-004	...........	-327.56
	436	1096.14	3.44606E+000	3.44605E+000	-3.70127E-004	...........	-327.56
	437	1098.65	3.44606E+000	3.44607E+000	-3.61267E-004	...........	-327.56
	438	1101.16	3.44606E+000	3.44606E+000	-3.65793E-004	...........	-327.56
	439	1103.67	3.44606E+000	3.44607E+000	-3.66607E-004	...........	-327.56
	440	1106.18	3.44606E+000	3.44606E+000	-3.67473E-004	...........	-327.56
	441	1108.68	3.44606E+000	3.44605E+000	-3.65860E-004	...........	-327.56
	442	1111.19	3.44606E+000	3.44604E+000	-3.63440E-004	...........	-327.56
	443	1113.7	3.44606E+000	3.44604E+000	-3.67233E-004	...........	-327.56
	444	1116.21	3.44605E+000	3.44607E+000	-3.67547E-004	...........	-327.56
	445	1118.72	3.44605E+000	3.44608E+000	-3.71080E-004	...........	-327.56
	446	1121.23	3.44605E+000	3.44607E+000	-3.72207E-004	...........	-327.56
	447	1123.73	3.44606E+000	3.44605E+000	-3.67740E-004	...........	-327.56
	448	1126.24	3.44607E+000	3.44606E+000	-3.68900E-004	...........	-327.56
	449	1128.75	3.44606E+000	3.44606E+000	-3.66660E-004	...........	-327.56
	450	1131.26	3.44606E+000	3.44606E+000	-3.70000E-004	...........	-327.56
	451	1133.77	3.44606E+000	3.44606E+000	-3.70587E-004	...........	-327.56
	452	1136.28	3.44606E+000	3.44606E+000	-3.69640E-004	...........	-327.56
	453	1138.78	3.44606E+000	3.44607E+000	-3.73547E-004	...........	-327.56
	454	1141.29	3.44606E+000	3.44604E+000	-3.67713E-004	...........	-327.56
	455	1143.8	3.44606E+000	3.44609E+000	-3.65620E-004	...........	-327.56
	456	1146.31	3.44606E+000	3.44605E+000	-3.71713E-004	...........	-327.56
	457	1148.82	3.44606E+000	3.44605E+000	-3.70207E-004	...........	-327.56
	458	1151.33	3.44606E+000	3.44606E+000	-3.73507E-004	...........	-327.56
	459	1153.83	3.44606E+000	3.44609E+000	-3.71253E-004	...........	-327.56
	460	1156.34	3.44606E+000	3.44605E+000	-3.70907E-004	...........	-327.56
	461	1158.85	3.44606E+000	3.44606E+000	-3.69273E-004	...........	-327.56
	462	1161.36	3.44607E+000	3.44607E+000	-3.70733E-004	...........	-327.56
	463	1163.87	3.44606E+000	3.44606E+000	-3.66300E-004	...........	-327.56
	464	1166.38	3.44606E+000	3.44607E+000	-3.67847E-004	...........	-327.56
	465	1168.88	3.44606E+000	3.44605E+000	-3.66027E-004	...........	-327.56
	466	1171.39	3.44606E+000	3.44607E+000	-3.65707E-004	...........	-327.56
	467	1173.9	3.44606E+000	3.44606E+000	-3.65367E-004	...........	-327.56
	468	1176.41	3.44606E+000	3.44606E+000	-3.66620E-004	...........	-327.56
	469	1178.92	3.44606E+000	3.44608E+000	-3.69687E-004	...........	-327.56
	470	1181.43	3.44606E+000	3.44608E+000	-3.66993E-004	...........	-327.56
	471	1183.93	3.44607E+000	3.44605E+000	-3.64447E-004	...........	-327.56
	472	1186.44	3.44607E+000	3.44608E+000	-3.69873E-004	...........	-327.56
	473	1188.95	3.44607E+000	3.44607E+000	-3.69927E-004	...........	-327.56
	474	1191.46	3.44607E+000	3.44606E+000	-3.67740E-004	...........	-327.56
	475	1193.97	3.44607E+000	3.44607E+000	-3.68113E-004	...........	-327.56
	476	1196.48	3.44607E+000	3.44606E+000	-3.66807E-004	...........	-327.56
	477	1198.98	3.44606E+000	3.44606E+000	-3.70953E-004	...........	-327.56
	478	1201.49	3.44606E+000	3.44606E+000	-3.66300E-004	...........	-327.56
	479	1204	3.44606E+000	3.44606E+000	-3.67820E-004	...........	-327.56
	480	1206.51	3.44606E+000	3.44607E+000	-3.68827E-004	...........	-327.56
	481	1209.02	3.44606E+000	3.44607E+000	-3.67173E-004	...........	-327.56
	482	1211.53	3.44606E+000	3.44609E+000	-3.70487E-004	...........	-327.56
	483	1214.03	3.44607E+000	3.44610E+000	-3.71880E-004	...........	-327.56
	484	1216.54	3.44608E+000	3.44611E+000	-3.67233E-004	...........	-327.56
	485	1219.05	3.44608E+000	3.44607E+000	-3.72547E-004	...........	-327.56
	486	1221.56	3.44609E+000	3.44609E+000	-3.65960E-004	...........	-327.56
	487	1224.07	3.44609E+000	3.44606E+000	-3.72127E-004	...........	-327.56
	488	1226.58	3.44609E+000	3.44607E+000	-3.70347E-004	...........	-327.56
	489	1229.08	3.44608E+000	3.44606E+000	-3.66947E-004	...........	-327.56
	490	1231.59	3.44607E+000	3.44607E+000	-3.67713E-004	...........	-327.56
	491	1234.1	3.44607E+000	3.44607E+000	-3.66033E-004	...........	-327.56
	492	1236.61	3.44607E+000	3.44606E+000	-3.68147E-004	...........	-327.56
	493	1239.12	3.44607E+000	3.44606E+000	-3.68773E-004	...........	-327.56
	494	1241.63	3.44607E+000	3.44606E+000	-3.63773E-004	...........	-327.56
	495	1244.13	3.44606E+000	3.44606E+000	-3.69220E-004	...........	-327.56
	496	1246.64	3.44606E+000	3.44606E+000	-3.69293E-004	...........	-327.56
	497	1249.15	3.44606E+000	3.44606E+000	-3.61713E-004	...........	-327.56
	498	1251.66	3.44606E+000	3.44607E+000	-3.66627E-004	...........	-327.56
	499	1254.17	3.44606E+000	3.44607E+000	-3.70800E-004	...........	-327.56
	500	1256.68	3.44606E+000	3.44605E+000	-3.66587E-004	...........	-327.56
	501	1259.18	3.44606E+000	3.44605E+000	-3.65047E-004	...........	-327.56
	502	1261.69	3.44606E+000	3.44605E+000	-3.63300E-004	...........	-327.56
	503	1264.2	3.44606E+000	3.44605E+000	-3.68747E-004	...........	-327.56
	504	1266.71	3.44605E+000	3.44606E+000	-3.69147E-004	...........	-327.56
	505	1269.22	3.44605E+000	3.44607E+000	-3.66300E-004	...........	-327.56
	506	1271.73	3.44606E+000	3.44608E+000	-3.70393E-004	...........	-327.56
	507	1274.23	3.44606E+000	3.44607E+000	-3.69480E-004	...........	-327.56
	508	1276.74	3.44607E+000	3.44604E+000	-3.68020E-004	...........	-327.56
	509	1279.25	3.44607E+000	3.44603E+000	-3.68127E-004	...........	-327.56
	510	1281.76	3.44606E+000	3.44605E+000	-3.70060E-004	...........	-327.56
	511	1284.27	3.44605E+000	3.44605E+000	-3.67387E-004	...........	-327.56
	512	1286.78	3.44605E+000	3.44604E+000	-3.68633E-004	...........	-327.56
	513	1289.28	3.44605E+000	3.44606E+000	-3.61980E-004	...........	-327.56
	514	1291.79	3.44605E+000	3.44607E+000	-3.64140E-004	...........	-327.56
	515	1294.3	3.44605E+000	3.44605E+000	-3.63780E-004	...........	-327.56
	516	1296.81	3.44606E+000	3.44605E+000	-3.61087E-004	...........	-327.56
	517	1299.32	3.44606E+000	3.44608E+000	-3.65587E-004	...........	-327.56
	518	1301.83	3.44606E+000	3.44607E+000	-3.67193E-004	...........	-327.56
	519	1304.33	3.44606E+000	3.44605E+000	-3.61473E-004	...........	-327.56
	520	1306.84	3.44606E+000	3.44607E+000	-3.68827E-004	...........	-327.56
	521	1309.35	3.44607E+000	3.44606E+000	-3.64567E-004	...........	-327.56
	522	1311.86	3.44606E+000	3.44606E+000	-3.69220E-004	...........	-327.56
	523	1314.37	3.44606E+000	3.44607E+000	-3.63480E-004	...........	-327.56
	524	1316.88	3.44606E+000	3.44609E+000	-3.66253E-004	...........	-327.56
	525	1319.38	3.44607E+000	3.44605E+000	-3.62253E-004	...........	-327.56
	526	1321.89	3.44607E+000	3.44606E+000	-3.58427E-004	...........	-327.56
	527	1324.4	3.44607E+000	3.44606E+000	-3.64707E-004	...........	-327.56
	528	1326.91	3.44607E+000	3.44606E+000	-3.65287E-004	...........	-327.56
	529	1329.42	3.44606E+000	3.44605E+000	-3.64607E-004	...........	-327.56
	530	1331.93	3.44606E+000	3.44605E+000	-3.61833E-004	...........	-327.56
	531	1334.43	3.44606E+000	3.44607E+000	-3.65693E-004	...........	-327.56
	532	1336.94	3.44606E+000	3.44608E+000	-3.67133E-004	...........	-327.56
	533	1339.45	3.44606E+000	3.44606E+000	-3.65913E-004	...........	-327.56
	534	1341.96	3.44606E+000	3.44607E+000	-3.68587E-004	...........	-327.56
	535	1344.47	3.44607E+000	3.44606E+000	-3.70647E-004	...........	-327.56
	536	1346.98	3.44607E+000	3.44607E+000	-3.66320E-004	...........	-327.56
	537	1349.48	3.44607E+000	3.44607E+000	-3.69060E-004	...........	-327.56
	538	1351.99	3.44607E+000	3.44605E+000	-3.65773E-004	...........	-327.56
	539	1354.5	3.44606E+000	3.44607E+000	-3.67353E-004	...........	-327.56
	540	1357.01	3.44606E+000	3.44606E+000	-3.66427E-004	...........	-327.56
	541	1359.52	3.44606E+000	3.44606E+000	-3.61380E-004	...........	-327.56
	542	1362.03	3.44606E+000	3.44604E+000	-3.66680E-004	...........	-327.56
	543	1364.53	3.44606E+000	3.44609E+000	-3.66960E-004	...........	-327.56
	544	1367.04	3.44606E+000	3.44609E+000	-3.63827E-004	...........	-327.56
	545	1369.55	3.44607E+000	3.44609E+000	-3.67233E-004	...........	-327.56
	546	1372.06	3.44608E+000	3.44610E+000	-3.68293E-004	...........	-327.56
	547	1374.57	3.44609E+000	3.44610E+000	-3.65667E-004	...........	-327.56
	548	1377.08	3.44609E+000	3.44606E+000	-3.66413E-004	...........	-327.56
	549	1379.58	3.44609E+000	3.44606E+000	-3.64173E-004	...........	-327.56
	550	1382.09	3.44609E+000	3.44605E+000	-3.57787E-004	...........	-327.56
	551	1384.6	3.44608E+000	3.44607E+000	-3.63000E-004	...........	-327.56
	552	1387.11	3.44607E+000	3.44606E+000	-3.61400E-004	...........	-327.56
	553	1389.62	3.44606E+000	3.44609E+000	-3.64440E-004	...........	-327.56
	554	1392.13	3.44606E+000	3.44607E+000	-3.65627E-004	...........	-327.56
	555	1394.63	3.44607E+000	3.44606E+000	-3.65620E-004	...........	-327.56
	556	1397.14	3.44607E+000	3.44606E+000	-3.65393E-004	...........	-327.56
	557	1399.65	3.44607E+000	3.44608E+000	-3.67960E-004	...........	-327.56
	558	1402.16	3.44607E+000	3.44607E+000	-3.66353E-004	...........	-327.56
	559	1404.67	3.44607E+000	3.44606E+000	-3.65453E-004	...........	-327.56
	560	1407.18	3.44607E+000	3.44605E+000	-3.67913E-004	...........	-327.56
	561	1409.68	3.44607E+000	3.44608E+000	-3.67273E-004	...........	-327.56
	562	1412.19	3.44607E+000	3.44607E+000	-3.67820E-004	...........	-327.56
	563	1414.7	3.44607E+000	3.44606E+000	-3.64360E-004	...........	-327.56
	564	1417.21	3.44607E+000	3.44606E+000	-3.68300E-004	...........	-327.56
	565	1419.72	3.44607E+000	3.44609E+000	-3.67007E-004	...........	-327.56
	566	1422.23	3.44607E+000	3.44608E+000	-3.63667E-004	...........	-327.56
	567	1424.73	3.44607E+000	3.44608E+000	-3.68680E-004	...........	-327.56
	568	1427.24	3.44608E+000	3.44610E+000	-3.65813E-004	...........	-327.56
	569	1429.75	3.44608E+000	3.44612E+000	-3.67407E-004	...........	-327.56
	570	1432.26	3.44609E+000	3.44606E+000	-3.66433E-004	...........	-327.56
	571	1434.77	3.44609E+000	3.44606E+000	-3.63820E-004	...........	-327.56
	572	1437.28	3.44609E+000	3.44607E+000	-3.62073E-004	...........	-327.56
	573	1439.78	3.44608E+000	3.44609E+000	-3.65233E-004	...........	-327.56
	574	1442.29	3.44607E+000	3.44606E+000	-3.66720E-004	...........	-327.56
	575	1444.8	3.44607E+000	3.44604E+000	-3.59167E-004	...........	-327.56
	576	1447.31	3.44607E+000	3.44605E+000	-3.62160E-004	...........	-327.56
	577	1449.82	3.44606E+000	3.44607E+000	-3.65300E-004	...........	-327.56
	578	1452.33	3.44606E+000	3.44609E+000	-3.63773E-004	...........	-327.56
	579	1454.83	3.44606E+000	3.44604E+000	-3.61927E-004	...........	-327.56
	580	1457.34	3.44606E+000	3.44605E+000	-3.64573E-004	...........	-327.56
	581	1459.85	3.44606E+000	3.44606E+000	-3.63180E-004	...........	-327.56
	582	1462.36	3.44606E+000	3.44604E+000	-3.61007E-004	...........	-327.56
	583	1464.87	3.44605E+000	3.44605E+000	-3.64700E-004	...........	-327.56
	584	1467.38	3.44605E+000	3.44608E+000	-3.67380E-004	...........	-327.56
	585	1469.88	3.44605E+000	3.44607E+000	-3.66300E-004	...........	-327.56
	586	1472.39	3.44606E+000	3.44605E+000	-3.65687E-004	...........	-327.56
	587	1474.9	3.44606E+000	3.44605E+000	-3.66773E-004	...........	-327.56
	588	1477.41	3.44606E+000	3.44607E+000	-3.69627E-004	...........	-327.56
	589	1479.92	3.44606E+000	3.44605E+000	-3.66880E-004	...........	-327.56
	590	1482.43	3.44606E+000	3.44606E+000	-3.64853E-004	...........	-327.56
	591	1484.93	3.44606E+000	3.44608E+000	-3.68893E-004	...........	-327.56
	592	1487.44	3.44606E+000	3.44607E+000	-3.71513E-004	...........	-327.56
	593	1489.95	3.44607E+000	3.44606E+000	-3.70133E-004	...........	-327.56
	594	1492.46	3.44607E+000	3.44607E+000	-3.65300E-004	...........	-327.56
	595	1494.97	3.44607E+000	3.44609E+000	-3.68280E-004	...........	-327.56
	596	1497.48	3.44607E+000	3.44607E+000	-3.67047E-004	...........	-327.56
	597	1499.98	3.44607E+000	3.44607E+000	-3.68227E-004	...........	-327.56
	598	1502.49	3.44607E+000	3.44607E+000	-3.68300E-004	...........	-327.56
	599	1505	3.44607E+000	3.44606E+000	-3.70673E-004	...........	-327.56
	600	1507.51	3.44607E+000	3.44609E+000	-3.70933E-004	...........	-327.56
	601	1510.02	3.44607E+000	3.44606E+000	-3.72773E-004	...........	-327.56
	602	1512.53	3.44607E+000	3.44607E+000	-3.69867E-004	...........	-327.56
	603	1515.03	3.44607E+000	3.44610E+000	-3.67427E-004	...........	-327.56
	604	1517.54	3.44607E+000	3.44607E+000	-3.66107E-004	...........	-327.56
	605	1520.05	3.44608E+000	3.44606E+000	-3.66520E-004	...........	-327.56
	606	1522.56	3.44608E+000	3.44606E+000	-3.68113E-004	...........	-327.56
	607	1525.07	3.44607E+000	3.44608E+000	-3.68333E-004	...........	-327.56
	608	1527.58	3.44607E+000	3.44609E+000	-3.72740E-004	...........	-327.56
	609	1530.08	3.44607E+000	3.44607E+000	-3.68340E-004	...........	-327.56
	610	1532.59	3.44607E+000	3.44607E+000	-3.71300E-004	...........	-327.56
	611	1535.1	3.44608E+000	3.44607E+000	-3.71433E-004	...........	-327.56
	612	1537.61	3.44608E+000	3.44605E+000	-3.71940E-004	...........	-327.56
	613	1540.12	3.44607E+000	3.44606E+000	-3.71647E-004	...........	-327.56
	614	1542.63	3.44607E+000	3.44608E+000	-3.72753E-004	...........	-327.56
	615	1545.13	3.44606E+000	3.44607E+000	-3.64473E-004	...........	-327.56
	616	1547.64	3.44606E+000	3.44608E+000	-3.65953E-004	...........	-327.56
	617	1550.15	3.44607E+000	3.44606E+000	-3.68407E-004	...........	-327.56
	618	1552.66	3.44607E+000	3.44606E+000	-3.65793E-004	...........	-327.56
	619	1555.17	3.44607E+000	3.44607E+000	-3.64813E-004	...........	-327.56
	620	1557.68	3.44607E+000	3.44607E+000	-3.66547E-004	...........	-327.56
	621	1560.18	3.44607E+000	3.44606E+000	-3.68000E-004	...........	-327.56
	622	1562.69	3.44607E+000	3.44607E+000	-3.64253E-004	...........	-327.56
	623	1565.2	3.44607E+000	3.44605E+000	-3.60267E-004	...........	-327.56
	624	1567.71	3.44607E+000	3.44607E+000	-3.63960E-004	...........	-327.56
	625	1570.22	3.44606E+000	3.44606E+000	-3.68047E-004	...........	-327.56
	626	1572.73	3.44606E+000	3.44607E+000	-3.65860E-004	...........	-327.56
	627	1575.23	3.44606E+000	3.44606E+000	-3.68067E-004	...........	-327.56
	628	1577.74	3.44607E+000	3.44606E+000	-3.65073E-004	...........	-327.56
	629	1580.25	3.44607E+000	3.44607E+000	-3.67073E-004	...........	-327.56
	630	1582.76	3.44606E+000	3.44609E+000	-3.64453E-004	...........	-327.56
	631	1585.27	3.44607E+000	3.44606E+000	-3.63887E-004	...........	-327.56
	632	1587.78	3.44607E+000	3.44607E+000	-3.68647E-004	...........	-327.56
	633	1590.28	3.44607E+000	3.44608E+000	-3.65593E-004	...........	-327.56
	634	1592.79	3.44607E+000	3.44606E+000	-3.65920E-004	...........	-327.56
	635	1595.3	3.44607E+000	3.44608E+000	-3.67107E-004	...........	-327.56
	636	1597.81	3.44607E+000	3.44607E+000	-3.66627E-004	...........	-327.56
	637	1600.32	3.44607E+000	3.44607E+000	-3.68240E-004	...........	-327.56
	638	1602.83	3.44607E+000	3.44607E+000	-3.68720E-004	...........	-327.56
	639	1605.33	3.44607E+000	3.44606E+000	-3.66867E-004	...........	-327.56
	640	1607.84	3.44607E+000	3.44608E+000	-3.65553E-004	...........	-327.56
	641	1610.35	3.44607E+000	3.44607E+000	-3.68180E-004	...........	-327.56
	642	1612.86	3.44607E+000	3.44608E+000	-3.66960E-004	...........	-327.56
	643	1615.37	3.44607E+000	3.44607E+000	-3.66047E-004	...........	-327.56
	644	1617.88	3.44607E+000	3.44609E+000	-3.63727E-004	...........	-327.56
	645	1620.38	3.44608E+000	3.44608E+000	-3.66233E-004	...........	-327.56
	646	1622.89	3.44608E+000	3.44605E+000	-3.65940E-004	...........	-327.56
	647	1625.4	3.44608E+000	3.44606E+000	-3.67907E-004	...........	-327.56
	648	1627.91	3.44607E+000	3.44607E+000	-3.68013E-004	...........	-327.56
	649	1630.42	3.44607E+000	3.44607E+000	-3.63347E-004	...........	-327.56
	650	1632.93	3.44607E+000	3.44607E+000	-3.65280E-004	...........	-327.56
	651	1635.43	3.44607E+000	3.44608E+000	-3.68007E-004	...........	-327.56
	652	1637.94	3.44607E+000	3.44607E+000	-3.66000E-004	...........	-327.56
	653	1640.45	3.44607E+000	3.44606E+000	-3.65653E-004	...........	-327.56
	654	1642.96	3.44607E+000	3.44606E+000	-3.64367E-004	...........	-327.56
	655	1645.47	3.44607E+000	3.44609E+000	-3.67533E-004	...........	-327.56
	656	1647.98	3.44607E+000	3.44608E+000	-3.67407E-004	...........	-327.56
	657	1650.48	3.44607E+000	3.44607E+000	-3.66553E-004	...........	-327.56
	658	1652.99	3.44608E+000	3.44608E+000	-3.67660E-004	...........	-327.56
	659	1655.5	3.44608E+000	3.44608E+000	-3.63733E-004	...........	-327.56
	660	1658.01	3.44608E+000	3.44607E+000	-3.62587E-004	...........	-327.56
	661	1660.52	3.44608E+000	3.44607E+000	-3.67587E-004	...........	-327.56
	662	1663.03	3.44608E+000	3.44606E+000	-3.67107E-004	...........	-327.56
	663	1665.53	3.44607E+000	3.44607E+000	-3.67567E-004	...........	-327.56
	664	1668.04	3.44607E+000	3.44607E+000	-3.69633E-004	...........	-327.56
	665	1670.55	3.44607E+000	3.44608E+000	-3.68993E-004	...........	-327.56
	666	1673.06	3.44607E+000	3.44608E+000	-3.70233E-004	...........	-327.56
	667	1675.57	3.44607E+000	3.44607E+000	-3.70987E-004	...........	-327.56
	668	1678.08	3.44608E+000	3.44609E+000	-3.69200E-004	...........	-327.56
	669	1680.58	3.44608E+000	3.44607E+000	-3.65907E-004	...........	-327.56
	670	1683.09	3.44608E+000	3.44607E+000	-3.68880E-004	...........	-327.56
	671	1685.6	3.44608E+000	3.44606E+000	-3.67360E-004	...........	-327.56
	672	1688.11	3.44607E+000	3.44608E+000	-3.71447E-004	...........	-327.56
	673	1690.62	3.44607E+000	3.44607E+000	-3.70240E-004	...........	-327.56
	674	1693.13	3.44607E+000	3.44609E+000	-3.68273E-004	...........	-327.56
	675	1695.63	3.44607E+000	3.44607E+000	-3.72453E-004	...........	-327.56
	676	1698.14	3.44608E+000	3.44609E+000	-3.68100E-004	...........	-327.56
	677	1700.65	3.44608E+000	3.44607E+000	-3.70280E-004	...........	-327.56
	678	1703.16	3.44608E+000	3.44606E+000	-3.66953E-004	...........	-327.56
	679	1705.67	3.44608E+000	3.44609E+000	-3.68827E-004	...........	-327.56
	680	1708.18	3.44608E+000	3.44608E+000	-3.67867E-004	...........	-327.56
	681	1710.68	3.44608E+000	3.44607E+000	-3.70627E-004	...........	-327.56
	682	1713.19	3.44608E+000	3.44608E+000	-3.74887E-004	...........	-327.56
	683	1715.7	3.44608E+000	3.44609E+000	-3.70073E-004	...........	-327.56
	684	1718.21	3.44608E+000	3.44605E+000	-3.66473E-004	...........	-327.56
	685	1720.72	3.44608E+000	3.44606E+000	-3.71140E-004	...........	-327.56
	686	1723.23	3.44607E+000	3.44609E+000	-3.72447E-004	...........	-327.56
	687	1725.73	3.44607E+000	3.44606E+000	-3.67727E-004	...........	-327.56
	688	1728.24	3.44607E+000	3.44608E+000	-3.67613E-004	...........	-327.56
	689	1730.75	3.44607E+000	3.44607E+000	-3.64980E-004	...........	-327.56
	690	1733.26	3.44607E+000	3.44607E+000	-3.74373E-004	...........	-327.56
	691	1735.77	3.44607E+000	3.44607E+000	-3.69880E-004	...........	-327.56
	692	1738.28	3.44607E+000	3.44609E+000	-3.67207E-004	...........	-327.56
	693	1740.78	3.44607E+000	3.44606E+000	-3.71413E-004	...........	-327.56
	694	1743.29	3.44607E+000	3.44606E+000	-3.70440E-004	...........	-327.56
	695	1745.8	3.44607E+000	3.44607E+000	-3.67747E-004	...........	-327.56
	696	1748.31	3.44607E+000	3.44608E+000	-3.69660E-004	...........	-327.56
	697	1750.82	3.44607E+000	3.44606E+000	-3.71087E-004	...........	-327.56
	698	1753.33	3.44607E+000	3.44608E+000	-3.70000E-004	...........	-327.56
	699	1755.83	3.44607E+000	3.44609E+000	-3.69820E-004	...........	-327.56
	700	1758.34	3.44607E+000	3.44608E+000	-3.69313E-004	...........	-327.56
	701	1760.85	3.44608E+000	3.44609E+000	-3.71053E-004	...........	-327.56
	702	1763.36	3.44608E+000	3.44607E+000	-3.67607E-004	...........	-327.56
	703	1765.87	3.44608E+000	3.44607E+000	-3.69647E-004	...........	-327.56
	704	1768.38	3.44608E+000	3.44605E+000	-3.69013E-004	...........	-327.56
	705	1770.88	3.44607E+000	3.44607E+000	-3.66933E-004	...........	-327.56
	706	1773.39	3.44607E+000	3.44606E+000	-3.65707E-004	...........	-327.56
	707	1775.9	3.44606E+000	3.44607E+000	-3.64467E-004	...........	-327.56
	708	1778.41	3.44606E+000	3.44608E+000	-3.63807E-004	...........	-327.56
	709	1780.92	3.44607E+000	3.44608E+000	-3.62667E-004	...........	-327.56
	710	1783.43	3.44607E+000	3.44607E+000	-3.68007E-004	...........	-327.56
	711	1785.93	3.44608E+000	3.44606E+000	-3.67100E-004	...........	-327.56
	712	1788.44	3.44607E+000	3.44606E+000	-3.68267E-004	...........	-327.56
	713	1790.95	3.44607E+000	3.44606E+000	-3.74620E-004	...........	-327.56
	714	1793.46	3.44607E+000	3.44606E+000	-3.70333E-004	...........	-327.56
	715	1795.97	3.44606E+000	3.44604E+000	-3.66760E-004	...........	-327.56
	716	1798.48	3.44606E+000	3.44606E+000	-3.68820E-004	...........	-327.56
	717	1800.98	3.44606E+000	3.44607E+000	-3.65153E-004	...........	-327.56
EOC	QUANT	3.446058	Open Circuit (V)
PSTATMODEL	IQUANT	5	Pstat Model
PSTATSECTION	LABEL	REF3000-51199	Pstat Section
PSTATSERIALNO	LABEL	51199	Pstat Serial Number
CTRLMODE	IQUANT	1	Control Mode
ELECTROMETER	IQUANT	0	RE=0 or CS=1
IESTAB	IQUANT	0	I/E Stability
CASPEED	IQUANT	3	Control Amp Speed
CONVENTION	IQUANT	1	Current Convention
ICHRANGE	IQUANT	2	Ich Range
ICHRANGEMODE	TOGGLE	F	Ich Auto Range
ICHOFFSETENABLE	TOGGLE	T	Ich Offset Enable
ICHOFFSET	QUANT	0	Ich Offset (V)
ICHFILTER	IQUANT	3	Ich Filter
VCHRANGE	IQUANT	2	Vch Range
VCHRANGEMODE	TOGGLE	F	Vch Auto Range
VCHOFFSETENABLE	TOGGLE	T	Vch Offset Enable
VCHOFFSET	QUANT	0	Vch Offset (V)
VCHFILTER	IQUANT	3	Vch Filter
ACHRANGE	IQUANT	2	Ach Range
ACHOFFSETENABLE	TOGGLE	F	Ach Offset Enable
ACHOFFSET	QUANT	0	Ach Offset (V)
ACHFILTER	IQUANT	1	Ach Filter
IERANGELOWERLIMIT	IQUANT	2	I/E Range Lower Limit
IERANGEMODE	TOGGLE	F	I/E AutoRange
IERANGE	IQUANT	12	I/E Range
POSFEEDENABLE	TOGGLE	F	Positive Feedback IR Comp
POSFEEDRESISTANCE	QUANT	0	Positive Feedback Resistance (ohm)
ACHSELECT	IQUANT	4	Ach Select
SENSECABLEID	IQUANT	14	Sense Cable ID
PWRCABLEID	IQUANT	7	Power Cable ID
DCCALDATE	LABEL	1/28/2026	DC Calibration Date
ACCALDATE	LABEL	1/28/2026	AC Calibration Date
THERMOSELECT	IQUANT	1	Thermo Select
FRAMEWORKVERSION	LABEL	7.11.0	Framework Version
INSTRUMENTVERSION	LABEL	5.20	Instrument Version
COMMVERSION	LABEL	5.10	Communications Version
CPUPLDVERSION	LABEL	6.00	CPU PLD Version
CTRLPLDVERSION	LABEL	3.21	CTRL PLD Version
PSTATPLDVERSION	LABEL	0.00	PSTAT PLD Version
COMPLIANCEVOLTAGE	IQUANT	0	Compliance Voltage
ZCURVE	TABLE
	Pt	Time	Freq	Zreal	Zimag	Zsig	Zmod	Zphz	ZrealDrCor	ZimagDrCor	ZmodDrCor	ZphzDrCor	Idc	Vdc	IERange	Imod	Vmod	Temp	Ithd	Vthd	IHr1	IHi1	VHr1	VHi1	IHr2	IHi2	VHr2	VHi2	IHr3	IHi3	VHr3	VHi3	IHr4	IHi4	VHr4	VHi4	IHr5	IHi5	VHr5	VHi5	IHr6	IHi6	VHr6	VHi6	IHr7	IHi7	VHr7	VHi7	IHr8	IHi8	VHr8	VHi8	IHr9	IHi9	VHr9	VHi9	IHr10	IHi10	VHr10	VHi10
	#	s	Hz	ohm	ohm	V	ohm	deg	ohm	ohm	ohm	deg	A	V	#	A	V	degC	#	#	A	A	V	V	A	A	V	V	A	A	V	V	A	A	V	V	A	A	V	V	A	A	V	V	A	A	V	V	A	A	V	V	A	A	V	V	A	A	V	V
	0	2	10078.13	0.0283576	0.0246369	1	0.037565	40.98387	0.0283576	0.0246369	0.037565	40.98387	-0.0882393	3.442342	12	0.237247	0.0089108	-327.5556	0.1271612	0.24777	-16.17825	-14.1195	-0.1150187	-0.7982675	-0.1034688	-1.890675	0.0884531	-0.0627084	0.9379196	-1.465373	0.1351707	0.0201166	-0.7841925	0.3140117	-0.0569982	-0.0626297	-0.2620364	-0.0994387	0.001215	-0.0340769	0.1187017	0.1802062	-0.0200524	0.023828	-0.0086693	0.0351706	-0.0061685	-0.0001669	-0.0017114	0.0147631	-0.0027931	0.0004193	0.0425854	-0.0062255	0.0033073	0.0079749	0.0348347	0.0161358	-0.0018548	0.008471
	1	4	8015.625	0.0281113	0.0195998	1	0.0342695	34.88511	0.0281113	0.0195998	0.0342695	34.88511	-0.0842965	3.442362	12	0.361219	0.0123775	-327.5556	0.0994075	0.2015745	-18.28057	-27.10546	0.0127691	-1.120214	0.7229676	-1.23005	0.069716	-0.0084031	2.549885	-0.4394792	0.1037052	0.133842	-0.7069689	-0.6105996	0.0229443	-0.0740848	0.0646627	-0.7990761	0.0772403	-0.0224614	-0.4034273	0.2694888	-0.0448773	-0.0349428	-0.1955752	-0.0828617	0.0030327	-0.0285065	0.0450982	0.1781949	-0.0241652	0.0142617	-0.0295606	0.0249649	-0.0054002	-0.003493	0.02491	0.0087267	-0.000206	0.004976
	2	6	6328.125	0.0279037	0.0153211	1	0.0318332	28.76996	0.0279037	0.0153211	0.0318332	28.76996	-0.0808275	3.442389	12	0.3558168	0.0113261	-327.5556	0.0994854	0.1812958	-31.2188	-7.90819	-0.7521738	-0.6964934	-1.045794	-0.8915	-0.0028591	-0.0583015	-1.736487	-1.891576	0.0354959	-0.1360822	0.5160873	0.7462457	-0.0288641	0.0548663	0.3137963	0.7466148	-0.045152	0.048456	-0.11452	-0.4573538	0.0369356	-0.0260024	0.002947	-0.218358	0.0225012	-0.0075643	-0.026979	0.1767656	-0.0216172	0.0036215	-0.0213872	0.0332807	-0.0053167	-0.0013945	0.0119151	-0.0193629	0.0030503	0.0007951
	3	7	5015.625	0.0277916	0.0119263	1	0.0302425	23.22577	0.0277916	0.0119263	0.0302425	23.22577	-0.0794	3.44236	12	0.3818139	0.0115465	-327.5556	0.0948048	0.1575298	-21.58719	-26.98589	-0.2806809	-1.006676	0.6149163	-1.110254	0.0449464	-0.0167468	2.53098	-0.83282	0.1037965	0.0690181	-0.8070561	-0.392463	-0.0057341	-0.051069	-0.247285	-0.8774656	0.044754	-0.0430861	-0.2465968	0.4391226	-0.039413	-0.003251	-0.2758173	0.0482159	-0.0131907	-0.021096	0.1816284	0.1245018	-0.0053381	0.0214906	-0.0030729	0.0608757	-0.006691	0.0021227	0.0298571	-0.0444988	0.0062077	0.0019684
	4	9	3984.375	0.0277506	0.0091788	1	0.0292291	18.30213	0.0277506	0.0091788	0.0292291	18.30213	-0.0775557	3.442345	12	0.3882981	0.0113493	-327.5556	0.0925538	0.1387606	-28.07414	21.14226	-0.972434	0.3310044	-0.7203294	0.952513	-0.0389471	0.0129831	0.4538727	2.617949	-0.0638304	0.0877205	-0.7273999	-0.5025202	-0.0019859	-0.0430648	-0.9391078	0.1019997	-0.0337899	-0.0421515	0.3268397	-0.3958132	0.0328593	0.0063747	0.0076146	-0.302214	0.0203085	-0.0092175	0.1639327	0.1698904	-0.0073732	0.0180507	0.0728685	0.0160509	0.0011165	0.0064115	-0.0482673	0.0476666	-0.0060177	-0.002995
	5	11	3170.956	0.0277776	0.006953	1	0.0286345	14.05292	0.0277776	0.006953	0.0286345	14.05292	-0.0752745	3.442364	12	0.3904853	0.0111812	-327.5556	0.0903264	0.1230362	1.69417	35.30207	-0.1967762	0.992691	1.038091	0.3972393	0.0229926	0.0271293	0.3005019	-2.597866	0.0690641	-0.0659251	0.8595772	-0.0883778	0.027691	0.0240631	-0.2258027	-0.9350904	0.02933	-0.0366435	0.4680845	-0.2178949	0.0241642	0.0150335	-0.1571028	-0.2803095	0.0100644	-0.0170472	0.1844433	-0.1667923	0.0160563	0.0058644	-0.0542615	-0.06061	0.0023518	-0.0057037	0.032528	-0.0723607	0.0064845	8.821487E-006
	6	13	2527.573	0.027868	0.0051261	1	0.0283355	10.42262	0.027868	0.0051261	0.0283355	10.42262	-0.0743429	3.442333	12	0.3873981	0.010977	-327.5556	0.0879468	0.1099419	-27.91395	-21.21897	-0.6700803	-0.7335433	0.2990674	-1.00032	0.0203295	-0.0243385	1.64218	-1.902379	0.0809768	-0.0223703	-0.7859729	0.3389923	-0.0307122	-0.0097666	-0.9437694	-0.1322415	-0.0234852	-0.0329824	0.4258054	0.3071175	0.0011504	0.0248191	0.1087313	0.3028093	-0.0097804	0.0135852	0.0255057	-0.2599	0.013438	-0.0067493	0.0591644	-0.0594426	0.0050757	0.0013237	-0.0760939	0.0480011	-0.005334	-0.0032001
	7	15	1976.103	0.0280204	0.0035004	1	0.0282382	7.12062	0.0280204	0.0035004	0.0282382	7.12062	-0.0726315	3.442342	12	0.3840415	0.0108446	-327.5556	0.0842978	0.0977073	34.48178	4.384919	0.951086	0.2426	-0.5746681	-0.7552272	-0.0091126	-0.0261269	1.640748	1.707585	0.0207586	0.0708472	0.6328784	0.5451834	0.007418	0.0274391	-0.7187688	-0.6128868	-0.0057318	-0.0348201	-0.4237553	-0.3195222	-0.0027921	-0.0215359	0.2546428	0.2127686	0.0001605	0.0147614	0.227052	0.1576716	0.0007088	0.0134451	-0.0648721	-0.0597219	0.0006011	-0.0045668	-0.0962206	-0.0448095	-0.0007577	-0.0059822
	8	17	1577.524	0.0282144	0.002265	1	0.0283051	4.589781	0.0282144	0.002265	0.0283051	4.589781	-0.071326	3.442342	12	0.3747761	0.010608	-327.5556	0.0805667	0.0883665	-31.70586	12.05667	-0.9216479	0.2691028	-0.8593591	-0.0591967	-0.0236321	-0.0074112	-1.84043	1.167347	-0.0639171	0.0114124	0.3167295	-0.7419848	0.0202703	-0.0159183	-0.1077009	-0.9002793	0.0141551	-0.0274587	0.3450235	0.417002	0.0000954	0.0197761	0.2962662	0.1333409	0.0048399	0.0117652	-0.2849871	0.0522695	-0.009861	-0.0072136	-0.0761511	0.0438776	-0.0037413	-0.0012721	0.0247967	-0.1143266	0.005158	-0.0025086
	9	19	1265.625	0.0284479	0.0012598	1	0.0284758	2.535573	0.0284479	0.0012598	0.0284758	2.535573	-0.070208	3.442333	12	0.3687168	0.0104995	-327.5556	0.0748497	0.0788205	2.824037	-33.25274	0.1216155	-0.9424888	0.3484344	0.6457328	0.0064995	0.0198469	-1.499757	1.250824	-0.0523446	0.021306	0.5980042	0.503038	0.0105972	0.0211406	-0.5132777	0.7028328	-0.0252178	0.0118191	0.4745277	0.2616801	0.0086024	0.0161657	-0.1460669	0.2897859	-0.0103843	0.0049387	0.2919058	0.092267	0.0060338	0.0097895	-0.0305411	0.0847091	-0.0031879	0.0014944	0.1359255	0.0040808	0.0038862	0.0042806
	10	20	998.264	0.0287389	0.0003385	1	0.0287409	0.6748512	0.0287389	0.0003385	0.0287409	0.6748512	-0.0693405	3.442322	12	0.3606726	0.010366	-327.5556	0.0689571	0.0701792	-11.10672	30.69682	-0.329135	0.8785994	-0.0696856	0.6086532	-0.0040817	0.0168858	1.689574	0.3503901	0.0445566	0.0207449	-0.2325225	0.6826578	-0.0126831	0.0169072	0.7249545	0.3695768	0.0159576	0.0189335	-0.3031544	0.452661	-0.0148542	0.0081666	0.2208298	0.2281288	0.0022413	0.0100355	-0.25297	0.1984238	-0.011009	0.0006816	0.0340388	0.0821228	-0.0009553	0.0030522	-0.1392824	0.0633573	-0.0055386	-0.0015836
	11	22	796.875	0.0290611	-0.0004115	1	0.029064	-0.8112682	0.0290611	-0.0004115	0.029064	-0.8112682	-0.0681718	3.442325	12	0.3529462	0.010258	-327.5556	0.062158	0.0615285	18.76697	-25.85125	0.5344393	-0.7592064	-0.3428918	0.3744549	-0.0106003	0.0098746	-0.5928532	-1.360062	-0.0099058	-0.0406108	-0.641118	0.0062936	-0.0179555	-0.0043018	0.3070981	-0.6824864	0.0147226	-0.0160692	-0.3542949	-0.3816653	-0.0056064	-0.0146868	0.2964505	-0.0812703	0.0093915	0.0016932	0.0365257	-0.3292348	0.0058994	-0.0085746	0.0743678	0.0550422	0.0009928	0.0029304	0.1337126	-0.1035233	0.0058211	-0.0005395
	12	24	627.7902	0.029452	-0.0010897	1	0.0294721	-2.118865	0.029452	-0.0010897	0.0294721	-2.118865	-0.0661236	3.442379	12	0.3461847	0.0102028	-327.5556	0.054544	0.0528908	-26.2173	-17.15849	-0.7910014	-0.4765283	0.267501	-0.3088605	0.0079797	-0.0084229	1.115428	-0.5353003	0.0330768	-0.0112855	-0.5468024	0.0463247	-0.0156829	-0.0016595	-0.6398197	-0.2077655	-0.0161924	-0.0101827	0.376013	0.2992892	0.007968	0.0115392	0.1370444	0.2665333	0.0011529	0.0087996	-0.0424659	-0.3215052	0.0027275	-0.0094775	0.0305597	-0.0962575	0.0022278	-0.00213	-0.1020828	0.1512079	-0.0051184	0.0025578
	13	25	505.5147	0.0298516	-0.0016265	1	0.0298958	-3.118655	0.0298516	-0.0016265	0.0298958	-3.118655	-0.0663383	3.44233	12	0.3391664	0.0101397	-327.5556	0.0480178	0.0456708	12.88572	-27.86244	0.3391206	-0.8527835	-0.1603055	0.3045393	-0.0047795	0.0088165	-0.7355764	-0.723408	-0.019022	-0.0220094	-0.4089532	0.2574203	-0.0123513	0.0056553	-0.1698886	-0.5593225	-0.0018725	-0.016467	-0.4431147	0.0315126	-0.0126798	-0.0019612	0.0547229	-0.2631455	0.0035484	-0.0069189	-0.2919661	-0.129354	-0.0068222	-0.0062437	0.059891	-0.0659672	0.0023884	-0.001265	-0.120749	-0.1437998	-0.0016513	-0.0054858
	14	27	397.9953	0.0303378	-0.0021444	1	0.0304135	-4.043256	0.0303378	-0.0021444	0.0304135	-4.043256	-0.0630409	3.44243	12	0.3322262	0.0101041	-327.5556	0.0411238	0.0385326	-2.282687	-29.98291	-0.133733	-0.9046922	0.1251925	0.236849	0.0039554	0.0068243	-0.6699068	0.5127355	-0.0197152	0.0138347	0.3078826	0.237892	0.0081768	0.00734	-0.2130391	0.4602019	-0.0076609	0.0120697	0.3745485	0.0622593	0.0101674	0.0035435	0.0161429	0.2531434	-0.0009604	0.0070713	0.2738453	-0.0959704	0.0082521	-0.0008674	0.0485516	0.0828155	0.0006168	0.0026112	0.1207081	-0.1436446	0.0047324	-0.0030124
	15	29	315.5048	0.030857	-0.0025728	1	0.0309641	-4.766209	0.030857	-0.0025728	0.0309641	-4.766209	-0.0635469	3.442379	12	0.3250363	0.0100644	-327.5556	0.0348058	0.0320746	-14.41363	25.64607	-0.3786448	0.8285052	-0.1455859	0.1660251	-0.0041466	0.0051053	0.2459988	0.6281468	0.0068485	0.0180242	-0.3279133	0.0107469	-0.009314	-3.695489E-005	-0.1450305	0.3918236	-0.0050994	0.0107985	-0.2544237	-0.2108713	-0.0063099	-0.0067093	-0.1872013	0.1026638	-0.0055192	0.0022185	-0.0403119	-0.260641	0.0002334	-0.007588	-0.0767972	-0.0156461	-0.0019889	-0.0010713	0.0864798	-0.1564119	0.0035586	-0.0036969
	16	30	252.4038	0.0314026	-0.0029261	1	0.0315386	-5.323389	0.0314026	-0.0029261	0.0315386	-5.323389	-0.0638122	3.442341	12	0.3183839	0.0100414	-327.5556	0.0292801	0.0266946	17.32644	23.02616	0.6115572	0.6723026	0.1784724	0.0036778	0.0052707	-0.0001795	-0.3175351	-0.4351547	-0.0094885	-0.0125358	0.0394118	-0.2702362	0.0012717	-0.0077341	-0.2831137	0.1954511	-0.0083684	0.0052664	-0.2811569	-0.0458953	-0.0077719	-0.0018334	0.1033476	0.1468954	0.0026121	0.0041535	-0.0397136	0.2281888	-0.0019422	0.006199	0.0517898	-0.0360547	0.0015554	-0.0008701	0.1594756	0.021591	0.0043848	0.0014046
	17	32	198.6229	0.0320302	-0.0032358	1	0.0321933	-5.768624	0.0320302	-0.0032358	0.0321933	-5.768624	-0.0627112	3.442359	12	0.3112369	0.0100197	-327.5556	0.0240413	0.0218348	-24.18961	-14.43639	-0.8215507	-0.3840444	0.1044616	-0.094332	0.0029044	-0.0030009	0.4165306	-0.0660709	0.0123196	-0.0023913	-0.212742	-0.0559874	-0.0062445	-0.0015841	-0.2114144	-0.1806551	-0.0059803	-0.005271	0.1051813	0.2058163	0.0028465	0.0060084	0.005801	0.1451733	-0.0002051	0.0041773	0.0706887	-0.182677	0.0024511	-0.0050955	0.0350859	-0.035613	0.001091	-0.0009122	-0.1305845	0.052967	-0.0039377	0.0009634
	18	34	158.3615	0.0326691	-0.0034775	1	0.0328537	-6.075976	0.0326691	-0.0034775	0.0328537	-6.075976	-0.0627897	3.442321	12	0.3047792	0.0100131	-327.5556	0.0198576	0.0176774	-18.414	20.53978	-0.5300833	0.7350944	-0.1083889	0.035877	-0.0033507	0.0012923	-0.1578577	0.2954319	-0.0041993	0.0089953	-0.0833396	-0.159369	-0.0026281	-0.0044987	-0.2143321	-0.0408224	-0.0063165	-0.0012555	0.1404137	-0.1343175	0.0041077	-0.0037801	-0.0153069	-0.1144575	-0.0001302	-0.0033395	0.1470934	0.0764646	0.0040487	0.0022602	0.0385153	-0.0165715	0.0009696	-0.0003977	-0.0162465	0.1195119	-0.0006523	0.0033526
	19	35	125.558	0.0333433	-0.0036691	1	0.0335446	-6.27958	0.0333433	-0.0036691	0.0335446	-6.27958	-0.0626362	3.442306	12	0.2981221	0.0100004	-327.5556	0.0159875	0.0143341	-23.29925	-13.60969	-0.8268341	-0.3682517	0.0656286	-0.0609037	0.0019906	-0.0023138	0.2596212	-0.0154236	0.0079079	-0.0011132	-0.1358396	-0.0506584	-0.0041583	-0.0013599	-0.1172305	-0.1257064	-0.0036125	-0.0037367	0.0461168	0.1454308	0.0015337	0.0041397	-0.0118074	0.0871323	-0.0004152	0.0024216	0.073109	-0.1133826	0.0021534	-0.0032806	0.0244666	-0.0161624	0.0007724	-0.0003805	-0.0979568	0.0145829	-0.0027061	0.0003128
	20	37	100.4464	0.0340217	-0.0037636	1	0.0342292	-6.312553	0.0340217	-0.0037636	0.0342292	-6.312553	-0.0609915	3.442355	12	0.2920972	0.0099983	-327.5556	0.0130197	0.0117333	20.68612	16.46305	0.7657621	0.4822077	0.0633289	-0.0343462	0.001982	-0.0011456	-0.1900675	-0.0789488	-0.0062425	-0.0021137	-0.0643629	-0.0924642	-0.0022612	-0.0028554	-0.0062796	0.1399063	-2.384186E-005	0.0040884	-0.0710367	0.0970991	-0.0018761	0.0029585	0.0692235	-0.0249056	0.0021148	-0.0007448	0.1027817	0.0295813	0.0030078	0.000679	-0.0148174	-0.0168319	-0.0005644	-0.0006094	-0.009726	-0.08187	-0.0003582	-0.0025406
	21	39	79.00281	0.0347789	-0.0038118	1	0.0349871	-6.254729	0.0347789	-0.0038118	0.0349871	-6.254729	-0.0608306	3.44234	12	0.2856119	0.0099927	-327.5556	0.0102995	0.0091931	3.771509	25.57403	0.2286878	0.8750507	0.0332111	0.050361	0.0014234	0.0016167	0.1375869	-0.0698642	0.0042984	-0.0026327	0.057879	0.070822	0.0020545	0.0020158	0.0721068	-0.0817594	0.0019927	-0.0026381	0.0817259	0.047144	0.0025163	0.0012617	0.0155103	-0.050249	0.0002887	-0.0016739	0.0831717	0.0112182	0.0023577	0.0002294	0.0018593	-0.0181614	3.099441E-005	-0.0004787	0.0608282	-0.0210947	0.0016133	-0.0007851
	22	40	63.3446	0.0354657	-0.0037656	1	0.035665	-6.060684	0.0354657	-0.0037656	0.035665	-6.060684	-0.060152	3.442348	12	0.2800038	0.0099863	-327.5556	0.0082932	0.0074713	11.42946	22.61941	0.4905529	0.759158	0.0440524	0.0152331	0.0016689	0.0003909	0.0228064	-0.1225075	0.0003302	-0.0040728	0.0654416	-0.0254277	0.0021262	-0.0009956	-0.0642407	-0.0560066	-0.002106	-0.0014806	0.0167651	-0.0716396	0.0004704	-0.0022681	-0.0375245	0.0134484	-0.0011814	0.0005276	-0.0473687	-0.0457749	-0.0015528	-0.0013289	-0.0032879	0.0143484	-0.0002737	0.0003211	-0.049822	0.015483	-0.0014646	0.0005379
	23	42	49.86702	0.0361897	-0.0036334	1	0.0363716	-5.733227	0.0361897	-0.0036334	0.0363716	-5.733227	-0.0600353	3.442334	12	0.2740949	0.0099698	-327.5556	0.0064929	0.0057413	24.55661	3.524445	0.9015522	0.0382701	-0.0041797	-0.0391703	-0.0001388	-0.0013304	-0.0421855	0.0829151	-0.0011048	0.0029145	-0.0282175	0.0469668	-0.0007491	0.0015583	0.0356326	-0.0523398	0.0009918	-0.0017703	0.0422683	-0.0403976	0.0012259	-0.0013258	-0.0233846	0.01982	-0.0006855	0.0006459	-0.0440608	0.0297614	-0.0012803	0.000978	0.0079241	-0.0034274	0.0002378	-0.000133	0.0351301	-0.015298	0.0010196	-0.0006092
	24	44	39.72458	0.0368261	-0.0034266	1	0.0369852	-5.315927	0.0368261	-0.0034266	0.0369852	-5.315927	-0.059735	3.442321	12	0.2686246	0.0099355	-327.5556	0.0051395	0.0045566	-24.23037	-2.004291	-0.8992091	0.0092612	-0.0098931	-0.0309004	-0.000355	-0.0010877	0.0216994	-0.0699162	0.0003803	-0.0024577	-0.0129822	0.0418488	-0.0002973	0.0012932	-0.0156277	0.0433017	-0.0003428	0.0014669	0.024202	-0.0404377	0.0006549	-0.0013849	0.0099785	-0.0187468	0.0002937	-0.000612	-0.0213376	0.0339001	-0.0005949	0.001075	-0.0034035	0.0049712	-0.0001233	0.000165	0.0156223	-0.0246305	0.0004301	-0.000849
	25	46	31.6723	0.0373987	-0.0031709	1	0.0375329	-4.846276	0.0373987	-0.0031709	0.0375329	-4.846276	-0.0588485	3.442332	12	0.2625135	0.0098531	-327.5556	0.0040448	0.0035625	-20.79385	-11.49582	-0.8141466	-0.3639708	0.0114939	-0.0240352	0.0004272	-0.0008196	0.0572252	-0.0006492	0.0019312	-0.0002276	-0.0296424	-0.0145649	-0.0009961	-0.0003912	-0.0223201	-0.0232353	-0.0007527	-0.0007498	0.0022373	0.0382276	0.0001962	0.0012365	-0.0062785	0.0157024	-0.0001583	0.0004915	0.02294	-0.0209544	0.0006521	-0.0007236	0.0035101	-0.0016668	5.102158E-005	-6.40154E-005	-0.0196284	-0.0020698	-0.0006204	-0.0000978
	26	48	24.93351	0.037926	-0.0028561	1	0.0380334	-4.306605	0.037926	-0.0028561	0.0380334	-4.306605	-0.0578806	3.442354	12	0.2533818	0.0096371	-327.5556	0.0032514	0.0028647	-1.729977	-22.86816	-0.1309517	-0.8623646	0.0201709	0.0159908	0.0006557	0.000614	-0.0434314	0.0090961	-0.0014496	0.0004969	0.0069387	0.0239555	0.0002983	0.0008212	-0.0223446	0.0089896	-0.0007024	0.0003269	0.0145492	0.0252487	0.0005493	0.0007786	-0.0092943	0.0070438	-0.0003207	0.0001982	0.0125433	0.0181644	0.000453	0.0005229	-0.0026063	0.000099	-0.0000992	4.327297E-005	0.0112869	0.0109423	0.0003266	0.0002792
	27	50	19.86229	0.0383318	-0.0025483	1	0.0384164	-3.803483	0.0383318	-0.0025483	0.0384164	-3.803483	-0.0565112	3.4424	12	0.2809652	0.0107938	-327.5556	0.0025202	0.002166	1.446984	-25.38887	-0.0092571	-0.976897	0.015756	0.0114799	0.0004706	0.000358	-0.0355678	-0.0071734	-0.0011764	-0.0002103	-0.0043716	0.0196111	-0.0001416	0.0006873	-0.0242299	-0.011659	-0.0008712	-0.0003216	-0.0072454	0.0194496	-0.0001438	0.0006447	-0.0119295	-0.0065582	-0.0003769	-0.0002022	-0.0093813	0.0158963	-0.0003026	0.0005063	-0.0047678	-0.005944	-0.0002182	-0.0001411	-0.0075494	0.0145634	-0.0002372	0.000504
	28	51	15.83615	0.0386775	-0.0022456	1	0.0387427	-3.322853	0.0386775	-0.0022456	0.0387427	-3.322853	-0.0565349	3.442389	12	0.2582135	0.0100039	-327.5556	0.0019791	0.0017243	1.298196	-23.33474	-0.0022068	-0.9054504	0.0120353	0.0071674	0.0003669	0.0001573	-0.0249057	-0.0106637	-0.0009332	-0.0003461	-0.004809	0.0152275	-0.0001001	0.0005118	-0.0186544	-0.0078501	-0.0005658	-0.0002908	-0.0038632	0.0136817	-0.0000958	0.0005263	-0.0070978	-0.0071627	-0.0002446	-0.0002041	-0.0063819	0.0102507	-0.0001879	0.0003232	-0.0026254	-0.0029894	-8.225442E-005	-5.793572E-005	-0.0052699	0.0071614	-0.0001729	0.0002089
	29	53	12.40079	0.0389619	-0.0019314	1	0.0390098	-2.837894	0.0389619	-0.0019314	0.0390098	-2.837894	-0.055736	3.442409	12	0.2563118	0.0099987	-327.5556	0.0015905	0.0014216	1.217798	-23.16672	0.0026906	-0.9049752	0.0129075	0.0044184	0.0003836	0.0001586	-0.0217364	-0.0084068	-0.0007708	-0.0002868	-0.0004151	0.009434	-7.057191E-005	0.0004035	-0.0102359	-0.0044062	-0.0003688	-0.0002161	-0.0043668	0.0123857	-6.890298E-005	0.0004779	-0.0050531	-0.0030966	-0.0001771	-0.0001298	-0.0068529	0.0093914	-0.0001373	0.0003222	-0.0022136	-0.0012509	-4.029275E-005	-0.0001202	-0.0052227	0.006505	-7.629396E-005	0.0001733
	30	55	9.93114	0.0391706	-0.0016798	1	0.0392066	-2.455618	0.0391706	-0.0016798	0.0392066	-2.455618	-0.0553122	3.442411	12	0.2551073	0.0100019	-327.5556	0.0013335	0.0011277	1.158742	-23.06059	0.0066402	-0.9052446	0.0142531	0.0067577	0.0004048	0.0001487	-0.0163156	-0.00656	-0.0006173	-0.0002303	-0.0016196	0.0082206	-4.363061E-005	0.0002543	-0.0084633	-0.0062172	-0.0002985	-0.0001835	-0.0039898	0.0069712	-8.940698E-005	0.0002895	-0.0040776	-0.0038261	-0.0001566	-0.0001765	-0.0039337	0.0074175	-9.2268E-005	0.0001884	0.0004246	-0.0032439	-3.910066E-005	-0.0001131	-0.0025093	0.0051169	-6.842614E-005	0.0001496
	31	56	7.944915	0.0393309	-0.0014526	1	0.0393577	-2.115103	0.0393309	-0.0014526	0.0393577	-2.115103	-0.0557918	3.442378	12	0.2539012	0.009993	-327.5556	0.001244	0.001096	1.098705	-22.95423	0.0098617	-0.9044078	0.0152638	0.0081565	0.0004189	0.0003157	-0.0134755	-0.0004284	-0.0005205	-6.616117E-006	-0.0012274	0.0099605	-2.121925E-005	0.0003197	-0.0078082	-0.0012729	-0.0002933	-0.0000989	-0.0022602	0.0096006	-8.058549E-005	0.0003667	-0.0036168	-0.0002348	-0.0001094	-1.454353E-005	-0.0025133	0.0057453	-0.0000956	0.000217	-0.001456	0.0007991	-6.842614E-005	2.634525E-005	-0.0022776	0.003878	-6.389619E-005	0.0001391
	32	58	6.317385	0.0394547	-0.0012506	1	0.0394745	-1.815556	0.039453	-0.0012502	0.0394728	-1.815015	-0.0540841	3.442428	12	0.2533733	0.0100018	-327.5556	0.0010222	0.0008744	1.036717	-22.90929	0.0122454	-0.9051773	0.0154889	0.0045851	0.000468	0.0001645	-0.0105777	-0.0015261	-0.0003769	-4.333259E-005	4.216284E-005	0.0062447	-1.811981E-005	0.0002013	-0.0066706	-0.0023818	-0.0002403	-0.0001435	-0.0022027	0.005043	-3.19481E-005	0.0001935	-0.0022145	-0.0021251	-5.674363E-005	-0.0001287	-0.0020221	0.0050207	-7.224084E-005	0.0001807	-0.0006161	-0.0022226	-2.884865E-005	-6.496907E-005	-0.0008556	0.0031868	-6.1512E-005	0.000111
	33	61	5.008013	0.03957	-0.0010853	1	0.0395849	-1.57108	0.0395663	-0.0010854	0.0395812	-1.57138	-0.0537557	3.442427	12	0.2528108	0.0100075	-327.5556	0.0007988	0.0006957	0.987148	-22.86052	0.0142455	-0.9056622	0.0128474	-0.0006886	0.0003831	-0.000115	-0.0087315	-0.0043113	-0.0003064	-0.0001882	3.37027E-005	0.003217	-1.049042E-005	6.705523E-005	-0.0046916	-0.0012855	-0.0001769	-0.0001366	-0.0005682	0.0029541	5.00679E-006	0.0001085	-0.0015682	-0.0030818	-5.316735E-005	-0.0001225	-0.0016588	0.0023002	-6.413461E-005	8.451939E-005	-8.745865E-005	-0.0024385	-2.455712E-005	-8.535386E-005	-0.0016332	0.0014374	-6.604196E-005	1.060963E-005
	34	64	3.945707	0.0396556	-0.000957	1	0.0396671	-1.382379	0.0396517	-0.000956	0.0396632	-1.381152	-0.0537327	3.442416	12	0.2518723	0.0099911	-327.5556	0.0009444	0.0007692	0.962736	-22.77654	0.0163774	-0.9041386	0.01586	0.0077229	0.000464	0.0002339	-0.0067123	0.0018164	-0.0002873	6.645918E-005	-0.0002039	0.0054121	-7.319451E-005	0.0001882	-0.0039972	0.0002729	-0.0001488	-7.033349E-006	-0.001513	0.004636	-6.484986E-005	0.0001764	-0.0012235	0.0012835	-5.102159E-005	-9.298326E-006	-0.0020063	0.0040761	-4.649163E-005	0.0001314	-0.0006863	0.0001602	-2.145767E-005	1.28746E-005	-0.0013852	0.0029387	-4.076959E-005	6.496906E-005
	35	67	3.158693	0.039727	-0.0008589	1	0.0397363	-1.238585	0.0397232	-0.0008591	0.0397325	-1.238926	-0.0531483	3.442423	12	0.2516975	0.0100015	-327.5556	0.0009152	0.0007947	0.9267057	-22.7622	0.0172608	-0.9050708	0.0192561	-0.0033301	0.0005789	-0.0002718	-0.0045241	-0.0013687	-0.0001414	-0.0001142	5.615875E-005	0.001627	-2.622604E-005	4.470348E-006	-0.0023975	-0.002353	-0.0000973	-0.0001364	-6.721542E-005	0.0018211	-8.58307E-006	5.543232E-005	-0.0015299	-0.0017035	-1.382828E-005	-0.0001608	-0.0009261	0.0009529	-4.911424E-005	4.696846E-005	0.0002786	-0.0019905	-1.740456E-005	-0.0001091	-0.001448	0.0001889	-2.69413E-005	-4.768373E-006
	36	70	2.504006	0.0397867	-0.0007837	1	0.0397944	-1.128499	0.0397821	-0.0007823	0.0397898	-1.126508	-0.0532398	3.442397	12	0.2512645	0.0099989	-327.5556	0.000934	0.000817	0.8834562	-22.7247	0.0173368	-0.9048334	0.0180114	-0.0045772	0.0005271	-0.0002791	-0.008143	-0.0042178	-0.0003109	-0.0001997	-9.390713E-005	-0.0010267	-3.147125E-005	-9.149314E-005	-0.0020901	-0.0014902	-6.985665E-005	-0.0001216	-0.0003763	0.0020926	1.621246E-005	6.151199E-005	-0.0007844	-0.001582	5.960464E-006	-0.0001059	-0.000875	0.0003593	-4.48227E-005	1.549721E-006	-0.0003413	-0.0023295	-1.740456E-005	-8.165837E-005	2.171099E-005	0.0001396	2.384186E-007	-3.337861E-005
	37	73	1.998082	0.0398454	-0.0007353	1	0.0398522	-1.057268	0.0398374	-0.0007362	0.0398442	-1.058688	-0.052777	3.442393	12	0.2509768	0.010002	-327.5556	0.0007091	0.0005451	0.8729069	-22.69905	0.0180876	-0.9050957	0.0125281	0.0068668	0.0003042	0.0001617	-0.0045371	-0.0025143	-0.0001378	-0.0001347	-0.0034291	0.0003998	-0.0001462	-2.002716E-005	-0.0003026	-0.0024922	4.291534E-006	-0.0001821	-0.0006722	0.0015033	-3.528596E-005	5.459785E-005	-0.0005821	-0.0019074	-4.768373E-006	-0.0001442	-0.0005818	0.0008509	-4.768373E-006	1.573563E-005	0.0006885	-0.0013475	-1.907349E-006	-5.829335E-005	-0.0001173	0.0004068	-1.883507E-005	-6.031991E-005
	38	77	1.584686	0.0398996	-0.0007146	1	0.039906	-1.026086	0.0398915	-0.0007135	0.0398979	-1.024635	-0.0516701	3.442416	12	0.2504813	0.0099957	-327.5556	0.0010474	0.000879	0.8848523	-22.65371	0.0191147	-0.9045061	0.0211508	0.001082	0.0006716	-5.722047E-005	-0.0015738	-0.0045756	-7.057191E-005	-0.0002861	-0.0001984	0.007586	-2.002716E-005	0.000263	-0.0034073	0.0016708	-7.867814E-005	5.185604E-006	-0.00226	0.0028421	-5.030633E-005	5.704165E-005	-0.0004609	0.0004345	7.867813E-006	-4.124642E-005	-0.001847	0.0006426	-5.388261E-005	1.573563E-005	-0.0002421	-0.0007768	-2.360344E-005	-5.841256E-005	-0.0006554	0.0012128	-2.241135E-005	-1.66893E-005
	39	82	1.266892	0.0399524	-0.0007058	1	0.0399587	-1.012062	0.0399426	-0.0007059	0.0399489	-1.012429	-0.0514663	3.442405	12	0.2505252	0.0100107	-327.5556	0.0009244	0.0008017	0.9072132	-22.6568	0.0202532	-0.9058351	0.0145704	-0.0086242	0.0003929	-0.0004706	0.0014101	0.011361	0.0001016	0.0003483	0.0020164	-0.0002721	3.552437E-005	-8.910895E-005	-0.0004286	0.0023442	-4.053117E-006	3.576279E-006	-0.0008042	0.0022439	4.053116E-006	6.633997E-005	-0.0011249	0.0005367	-1.335144E-005	-5.447866E-005	-0.0012954	0.0012694	-4.529954E-005	0	-0.0002768	5.514547E-005	-1.931191E-005	-3.027916E-005	-0.0006103	0.0008819	-7.152558E-006	-2.264977E-006
	40	87	0.999041	0.0400152	-0.0007226	1	0.0400217	-1.03457	0.0400038	-0.0007232	0.0400103	-1.035728	-0.0509015	3.442403	12	0.2497839	0.0099968	-327.5556	0.0015822	0.0016404	0.9154299	-22.58932	0.0203066	-0.904578	0.0292143	-0.0139357	0.0010614	-0.0007435	0.0018656	-0.0048119	0.0001135	-0.0003299	-0.011251	-0.0064701	-0.0004995	-0.0003278	0.0026148	0.0027415	0.0000954	7.450581E-006	-0.0004337	0.002007	2.932549E-005	4.076958E-005	-0.0015573	-0.0014339	-5.030633E-005	-0.0001391	-0.0006943	0.0028627	-5.24521E-006	8.320808E-005	-0.000855	-0.0007595	-1.978874E-005	-6.246568E-005	-0.0007639	0.0017789	1.907349E-006	-3.337861E-006
	41	94	0.7923428	0.0400788	-0.0007658	1	0.0400861	-1.094684	0.0400654	-0.0007645	0.0400727	-1.093191	-0.0500999	3.442405	12	0.2494358	0.0099989	-327.5556	0.0012137	0.0010676	0.9206547	-22.55757	0.0196226	-0.904785	0.0012747	0.006182	-0.0001872	0.0001137	0.0053742	0.0129615	0.0001698	0.0004159	0.0151086	0.005195	0.0005956	0.0000998	0.0067464	0.0091278	0.0002747	0.0002369	0.0002426	0.0087685	4.386902E-005	0.0003467	-0.0064952	0.000346	-0.0002067	-5.388261E-005	-0.0023657	-0.0009826	-0.000102	-7.390977E-005	0.0009382	3.548898E-005	1.764298E-005	-2.563E-005	-0.0010409	0.0014749	-5.078317E-005	1.704693E-005
	42	101	0.6334459	0.0401532	-0.0008201	1	0.0401616	-1.170034	0.0401391	-0.0008201	0.0401474	-1.170486	-0.0495165	3.442392	12	0.2489546	0.0099984	-327.5556	0.0018525	0.0016129	0.978543	-22.51154	0.0208297	-0.9047128	0.0293423	0.0115786	0.000999	0.000233	-0.0172951	0.0075408	-0.0006902	0.0002167	0.0102926	0.0085529	0.0003505	0.0001885	0.0099064	0.0035917	0.0004151	7.385015E-005	3.834069E-005	0.0040969	3.71933E-005	0.000129	-0.0010738	-0.0060527	-2.288819E-005	-0.000363	0.0020377	0.0037765	9.441376E-005	0.0001206	0.0004846	0.0045736	4.148483E-005	0.0001811	-0.0026572	0.0002724	-0.0000951	-3.83854E-005
	43	111	0.5040323	0.0402316	-0.0008961	1	0.0402416	-1.275977	0.0402175	-0.0008952	0.0402275	-1.275189	-0.0485018	3.4424	12	0.2485094	0.0100004	-327.5556	0.0018944	0.0018106	1.011456	-22.46975	0.0205567	-0.9049013	0.0143567	0.0036571	0.0003865	-7.370115E-005	-0.0250706	-0.0190291	-0.0009942	-0.0008583	-0.0077527	0.0151833	-0.0003231	0.0005351	-0.0016727	0.0038737	-4.100801E-005	7.623434E-005	-0.006985	-0.0030086	-0.0003011	-0.000153	-0.0023904	0.0094335	-6.1512E-005	0.0002788	-0.0107571	0.0006458	-0.0003908	1.823902E-005	-0.0015948	-0.0007315	-3.19481E-005	-5.853177E-005	-0.0041684	-0.00281	-0.0001507	-0.0001786
	44	122	0.400641	0.0403251	-0.0009959	1	0.0403374	-1.414758	0.0403054	-0.0009942	0.0403176	-1.413062	-0.0478284	3.442396	12	0.247799	0.0099956	-327.5556	0.0010819	0.0009583	1.087247	-22.40184	0.0215325	-0.904439	0.0062138	0.0050717	1.525879E-005	-0.0001285	-0.0014507	0.004719	-5.698205E-005	-3.111363E-005	-0.0135603	-0.0048215	-0.0005722	-0.0002958	0.0006762	0.0069309	6.818771E-005	0.0001379	-0.00445	-0.0006817	-0.0001626	-6.812812E-005	9.404495E-005	0.0054208	2.503395E-005	0.0001258	-0.013478	0.0016148	-0.0004842	-1.811981E-005	-0.0012019	0.002592	-1.40667E-005	4.756451E-005	-0.0014785	0.0003891	-5.50747E-005	-6.568433E-005
	45	133	0.316723	0.0404368	-0.0011167	1	0.0404522	-1.581863	0.0404183	-0.001116	0.0404337	-1.581597	-0.0467801	3.442395	12	0.247463	0.0100104	-327.5556	0.0014767	0.0013207	1.140213	-22.36875	0.0211272	-0.9057945	0.0203451	0.0055256	0.0006549	-3.153086E-005	0.0029284	-0.0019072	0.0001154	-0.0002792	-0.0074709	0.0099533	-0.0003164	0.0002688	-0.0138428	-0.0084608	-0.0005414	-0.0004063	0.002263	0.0072316	0.0001292	0.000208	-0.0018571	-0.0004728	-4.005433E-005	-0.0000958	0.007291	0.0061217	0.000329	0.0001856	0.0024915	0.0046288	8.98838E-005	0.0001554	-0.0003382	0.006299	-1.192093E-006	0.0001853
	46	151	0.2520161	0.0405627	-0.0012471	1	0.0405819	-1.761034	0.0405435	-0.0012484	0.0405628	-1.763699	-0.0455811	3.442391	12	0.2461768	0.0099903	-327.5556	0.0019794	0.0019971	-0.3028684	-22.27932	-0.041672	-0.9032566	0.0096177	0.0126236	0.0002763	0.0002079	0.0118124	-0.0154034	0.0004077	-0.0008292	-0.0080236	-0.0025582	-0.0004144	-0.0002774	0.0025006	0.0174254	0.0001307	0.0006073	0.0009456	-0.0062025	4.887581E-005	-0.0003816	-0.0138168	-0.0088208	-0.0005486	-0.0004507	0.0145799	0.0142456	0.000623	0.0004795	-0.0050627	-0.0081679	-0.0002129	-0.0003796	-0.0107676	-0.0019511	-0.0004137	-0.0001497
	47	169	0.2003205	0.0407127	-0.0014179	1	0.0407374	-1.99469	0.0406885	-0.0014165	0.0407132	-1.993827	-0.0443591	3.44239	12	0.2455929	0.0100048	-327.5556	0.0017178	0.0016025	0.0801165	-22.22839	-0.0295315	-0.9050484	0.0185846	0.0011919	0.0006461	-0.0003289	-0.0037375	0.0096428	-0.0001063	0.0001794	-0.0102715	-0.0003527	-0.0003991	-0.0001444	0.005863	0.0162668	0.0002894	0.0004913	0.0139099	-0.0080311	0.0005646	-0.0004007	0.0018272	-0.0086086	8.08239E-005	-0.00046	0.0009932	-0.0010861	8.368492E-005	-0.0001291	0.0040144	0.0047234	0.0001771	0.0001457	-0.004658	0.014209	-0.0001655	0.0004798
	48	196	0.1588983	0.0408734	-0.0016044	1	0.0409049	-2.24785	0.0408425	-0.0016027	0.040874	-2.24717	-0.0430776	3.442392	12	0.244478	0.0100003	-327.5556	0.0014744	0.0010887	0.4481019	-22.12309	-0.018189	-0.904944	0.016142	0.0200593	0.0006053	0.0002732	0.0007818	0.0051909	5.841255E-005	-4.148484E-005	-0.0004173	0.0024697	-1.454353E-005	-0.0001024	0.0036396	0.0014931	0.0001514	-0.0001467	0.0029211	0.0001646	0.000165	-6.40154E-005	-0.0050742	-0.0010294	-0.0002098	-0.0001459	-0.0002586	0.0120799	-5.960465E-006	0.0003834	-0.0058515	0.0116602	-0.0002189	0.0003992	-0.0004895	-0.0005994	-7.987023E-005	-0.0001113
	49	222	0.1260081	0.0410649	-0.001828	1	0.0411055	-2.548778	0.0410268	-0.0018259	0.0410674	-2.548319	-0.0420627	3.442386	12	0.2432617	0.0099994	-327.5556	0.0017316	0.0014209	0.7452571	-22.00492	-0.0104213	-0.9049821	0.0149835	0.0171545	0.0006261	5.730987E-005	0.002527	0.0187492	0.0001609	0.0004703	0.0032975	0.0027729	0.0001369	-0.0001172	-0.000648	-0.003234	-3.862382E-005	-0.0003356	0.0037061	0.0021346	0.0002067	-3.898145E-005	-0.0057647	0.0175227	-0.0002067	0.0005528	0.0105092	-0.0053801	0.0004702	-0.0003511	0.0057298	-0.0028322	0.0002372	-0.000236	-0.0027061	0.0011608	-0.0000956	-8.296968E-005
	50	261	0.1001603	0.0413067	-0.0020802	1	0.041359	-2.883037	0.0412182	-0.0020746	0.0412704	-2.881345	-0.0428885	3.442393	12	0.2418291	0.0100018	-327.5556	0.002113	0.0014628	1.026757	-21.86378	-0.0037069	-0.9052532	0.0129603	0.0244292	0.0006871	-0.0002619	-0.0014505	0.0113483	8.749962E-005	-0.0003054	-0.0030947	0.0164701	-6.127358E-005	0.000146	0.0114975	0.0032276	0.0005739	-0.0002906	-0.0123089	0.0116557	-0.0004106	0.0001655	-0.0018755	0.0101808	-2.527237E-005	0.0001217	-0.0024877	-0.000673	-5.078317E-005	-0.0003029	-0.0079633	0.011644	-0.000267	0.0002772	0.0088798	0.0118665	0.000416	0.0002147
	51	298	0.0794492	0.0415479	-0.0023886	1	0.0416165	-3.290307	0.0414415	-0.0023787	0.0415097	-3.285045	-0.042068	3.442398	12	0.240338	0.010002	-327.5556	0.0026863	0.0007959	1.284534	-21.71496	0.0009966	-0.9052788	-0.005672	0.0412338	-3.814698E-006	0.0001619	-0.0083198	0.0227387	-0.0001302	6.318092E-005	0.0028874	0.0104046	0.0002136	-0.0002434	-0.0043815	0.0202704	-7.581712E-005	0.0002946	-0.0055321	0.0066309	-0.000129	-0.0001352	0.0064211	0.0144856	0.0003743	0.0001729	-0.0064618	0.0086141	-0.0001931	2.980232E-005	0.0027055	0.0061226	0.0001671	4.410744E-006	-0.0027362	0.0074432	-5.173684E-005	2.884865E-005
	52	350	0.0631739	0.0417392	-0.0027542	1	0.0418299	-3.77525	0.0416821	-0.0027492	0.0417727	-3.77353	-0.0379504	3.442389	12	0.2391372	0.0100031	-327.5556	0.0018526	0.001187	1.563749	-21.58767	0.0054111	-0.90536	0.0012418	0.0243944	0.0003202	-5.415083E-005	-0.0108719	0.013886	-0.0002313	0.0001065	-0.0001827	0.0014415	4.887581E-005	-0.0002797	-0.0015011	0.0165335	4.339218E-005	0.0004181	-0.0143928	0.0025578	-0.0005043	-4.798175E-005	-0.0047199	0.0010897	-0.0001905	-0.0001528	0.0057196	-0.0076385	0.0002518	-0.0004464	-0.0089981	-0.0011187	-0.0003364	-0.0001143	-0.0030771	0.0016243	-9.369851E-005	-0.0001162
	53	400	0.0501337	0.0420266	-0.0031933	1	0.0421477	-4.345201	0.0419688	-0.0031842	0.0420895	-4.338739	-0.0357179	3.442389	12	0.2371587	0.0099957	-327.5556	0.0017783	0.0008377	1.827917	-21.38719	0.0082061	-0.9046706	0.0016587	0.025296	0.000397	-4.708768E-005	-0.0019948	0.0202011	0.00016	0.000351	-0.003454	0.0113007	-3.886224E-005	0.0002158	0.0031448	0.0080812	0.0001869	5.227327E-005	-0.0016332	0.0032447	-4.148484E-005	-1.841784E-005	0.0020778	0.0003978	8.821487E-005	-0.0001945	-0.0040824	0.0060607	-0.0001106	8.130074E-005	0.000543	0.0062318	5.674362E-005	0.0001545	-0.0081787	0.0032228	-0.0002923	-3.063679E-005
	54	462	0.0398258	0.0423592	-0.003721	1	0.0425223	-5.020195	0.0423007	-0.0037117	0.0424632	-5.014639	-0.0333523	3.442391	12	0.2352142	0.0100018	-327.5556	0.001713	0.0009724	2.128626	-21.18248	0.0110939	-0.905196	0.0010327	0.0297844	0.0006385	5.182624E-005	-0.0074325	0.0047523	1.192093E-006	-0.0002851	-0.0055833	0.0057256	-0.0001087	-7.027389E-005	-0.0108927	0.0008175	-0.0003693	-0.0002042	-0.0006443	0.0064514	-4.291535E-006	8.958578E-005	-0.0054945	0.0026372	-0.0001955	-7.665158E-005	-0.0025657	0.0063011	-7.534028E-005	8.273125E-005	-9.110385E-005	0.006129	1.811981E-005	0.0001208	-0.0032495	0.0026698	-7.93934E-005	-5.066396E-005
	55	539	0.0316296	0.0427547	-0.0043466	1	0.042975	-5.804898	0.0426954	-0.0043337	0.0429148	-5.795848	-0.0304023	3.442385	12	0.2327713	0.0100034	-327.5556	0.0018336	0.0006823	2.432267	-20.92718	0.0128286	-0.9053095	-0.0075853	0.0315781	0.0004172	1.874566E-005	-0.0125989	0.0115204	-0.0001299	7.688999E-006	0.0014283	0.0047677	0.0001884	-6.955863E-005	0.0045697	0.0009789	0.0002398	-0.0001939	0.0016548	0.0042669	6.341934E-005	-3.57628E-007	-0.0024293	0.0034971	-8.344651E-005	-4.60148E-005	-0.0009691	0.0006738	-3.719331E-005	-0.000138	0.0017691	0.0060818	0.0001092	9.274483E-005	0.0002755	0.0043448	2.551079E-005	6.914139E-006
	56	667	0.0251206	0.0432311	-0.0050897	1	0.0435297	-6.714612	0.0431639	-0.0050745	0.0434612	-6.705102	-0.0273597	3.442387	12	0.2297294	0.0100001	-327.5556	0.0022378	0.0006463	2.758829	-20.6089	0.0142152	-0.9049899	-0.0152875	0.0373208	0.0003281	0.0001696	-0.0145637	0.0114552	-0.0001242	1.835823E-005	-0.0045869	0.007957	-1.40667E-005	0.0000981	-7.189235E-005	0.0042443	7.224083E-005	-8.606912E-005	0.0021399	0.0050355	0.0001304	1.043081E-005	-0.0017522	0.0058317	-5.793572E-005	2.31266E-005	-0.0001026	0.0030208	1.502037E-005	-7.390977E-005	-0.0007341	-0.0009508	-2.908707E-005	-0.0001972	-0.0015772	-0.0035586	-3.981591E-005	-0.0003155
	57	789	0.0199553	0.0438203	-0.0059478	1	0.0442221	-7.729569	0.0437478	-0.0059281	0.0441477	-7.716883	-0.0247287	3.442391	12	0.2262156	0.0100037	-327.5556	0.0023286	0.0005865	3.101019	-20.23851	0.0153868	-0.9053035	-0.0215797	0.0345849	0.0003154	4.544854E-005	-0.0159305	0.0077694	-7.29561E-005	-8.034707E-005	-0.0078654	0.0046913	-0.0001171	-1.311302E-006	0.0052312	0.0044503	0.0002816	-5.322696E-005	0.0041139	0.0045437	0.0002105	-5.364419E-007	0.0009194	0.0068205	3.266335E-005	3.910065E-005	0.0001097	0.0054771	6.055832E-005	-3.814698E-006	0.000529	0.0025909	5.38826E-005	-7.236005E-005	0.0013698	0.0065118	0.0001001	6.389618E-005
	58	941	0.0158522	0.0445371	-0.0069393	1	0.0450744	-8.85599	0.0444659	-0.0069181	0.0450009	-8.843307	-0.0212801	3.442382	12	0.2218992	0.010002	-327.5556	0.0025637	0.0004882	3.454938	-19.78462	0.0164812	-0.9051255	-0.0255539	0.0370879	0.0003402	9.146333E-005	-0.0175695	0.0083289	-7.796289E-005	9.536743E-006	-0.0069674	0.0022618	-4.267694E-005	-6.27041E-005	-0.0003821	0.0059606	6.03199E-005	7.021427E-005	-0.0001105	0.0045474	1.907349E-006	1.448393E-005	0.0023869	0.0066816	0.000102	2.765655E-005	0.0014961	0.0035143	9.322166E-005	-8.630754E-005	-0.0041393	0.0039346	-0.0001402	-1.28746E-005	-0.0014572	0.0059129	-1.215935E-005	5.686283E-005
	59	1196	0.0125907	0.0454242	-0.0080438	1	0.0461309	-10.04199	0.0453453	-0.0080155	0.0460483	-10.02434	-0.0182318	3.442375	12	0.2168296	0.0100025	-327.5556	0.0028449	0.0005195	3.782969	-19.25712	0.0168571	-0.9051696	-0.0326153	0.0377905	0.0002816	0.0001073	-0.0181757	0.0055816	-7.319451E-005	1.037121E-005	-0.0076604	0.0046336	-4.673005E-005	6.049871E-005	-0.0015296	0.0012851	-4.816056E-005	-0.0001192	-0.0012631	0.0088386	-4.48227E-005	0.0001798	-0.0007569	0.0020758	-5.316735E-005	-0.0001614	-0.0013162	0.0065157	-2.598763E-005	3.802776E-005	-0.0028305	0.0024521	-9.298326E-005	-0.0001132	-0.003945	0.004622	-0.0001223	-2.729893E-005
	60	1436	0.0100011	0.04644	-0.0092711	1	0.0473564	-11.28989	0.0463602	-0.0092395	0.047272	-11.27126	-0.0150425	3.442375	12	0.2112754	0.0100052	-327.5556	0.0027401	0.0004189	4.104255	-18.67683	0.0173831	-0.9054037	-0.033903	0.0337011	0.0003321	-1.624227E-005	-0.0156772	0.0039928	3.767014E-005	8.106232E-006	-0.0056482	0.0022282	4.911423E-005	-6.556512E-006	-0.0005346	0.0030326	2.527237E-005	-4.053117E-006	-0.0005262	0.0047488	-3.743173E-005	-1.15037E-005	0.001277	0.006585	4.601479E-005	1.811981E-005	0.001359	0.0064346	8.702278E-005	3.695488E-005	-0.0016912	0.0049842	-5.50747E-005	-2.169609E-005	-0.0023559	0.0028174	-5.912782E-005	-9.393693E-005
