EXPLAIN
TAG	EISPOT
TITLE	LABEL	30Q_1_2C	Test &Identifier
DATE	LABEL	6/26/2026	Date
TIME	LABEL	12:22:58	Time
NOTES	NOTES	6	&Notes...
	Potentiostatic EIS Data Test preformed on a 30Q battery.
	- 10 AC mV rms preformed on 6/26/26
	- 30Q_1_2C
	- Custom Battery Holder Tray. Wood Base w/ reference aligator clips connected to center of banana plug.
	- No Floating Ground
	- No Faraday Cage
PSTAT	PSTAT	REF3000-51199	Potentiostat
VDC	POTEN	0.00000E+000	T	DC &Voltage (V)
FREQINIT	QUANT	1.00000E+004	Initial Fre&q. (Hz)
FREQFINAL	QUANT	1.00000E-002	Final Fre&q. (Hz)
PTSPERDEC	QUANT	1.00000E+001	Points/&decade
VAC	QUANT	1.00000E+001	AC &Voltage (mV rms)
AREA	QUANT	2.54000E+000	&Area (cm^2)
CONDIT	TWOPARAM	F	1.50000E+001	0.00000E+000	Conditionin&g	Time(s)	E(V)
DELAY	TWOPARAM	T	1.80000E+003	0.00000E+000	Init. De&lay	Time(s)	Stab.(mV/s)
SPEED	SELECTOR	1	&Optimize for:
THD	SELECTOR	1	T&HD
DRIFTCOR	SELECTOR	1	&Drift Correction
ZGUESS	QUANT	1.00000E-001	E&stimated Z (ohms)
OCVCURVE	TABLE	718
	Pt	T	Vf	Vm	Ach	Over	Temp
	#	s	V vs. Ref.	V	V	bits	deg C
	0	2.50833	3.44611E+000	3.44611E+000	-3.78173E-004	...........	-327.56
	1	5.01667	3.44611E+000	3.44578E+000	-3.72047E-004	...........	-327.56
	2	7.525	3.44607E+000	3.44568E+000	-3.73040E-004	...........	-327.56
	3	10.0333	3.44599E+000	3.44563E+000	-3.74967E-004	...........	-327.56
	4	12.5417	3.44587E+000	3.44562E+000	-3.72907E-004	...........	-327.56
	5	15.05	3.44575E+000	3.44559E+000	-3.76420E-004	...........	-327.56
	6	17.5583	3.44567E+000	3.44554E+000	-3.66720E-004	...........	-327.56
	7	20.0667	3.44562E+000	3.44555E+000	-3.69980E-004	...........	-327.56
	8	22.575	3.44559E+000	3.44554E+000	-3.70607E-004	...........	-327.56
	9	25.0833	3.44556E+000	3.44554E+000	-3.68447E-004	...........	-327.56
	10	27.5917	3.44555E+000	3.44554E+000	-3.65760E-004	...........	-327.56
	11	30.1	3.44554E+000	3.44554E+000	-3.64133E-004	...........	-327.56
	12	32.6083	3.44554E+000	3.44554E+000	-3.68967E-004	...........	-327.56
	13	35.1167	3.44554E+000	3.44553E+000	-3.76160E-004	...........	-327.56
	14	37.625	3.44554E+000	3.44554E+000	-3.70807E-004	...........	-327.56
	15	40.1333	3.44554E+000	3.44553E+000	-3.68333E-004	...........	-327.56
	16	42.6417	3.44553E+000	3.44553E+000	-3.72993E-004	...........	-327.56
	17	45.15	3.44553E+000	3.44554E+000	-3.73553E-004	...........	-327.56
	18	47.6583	3.44553E+000	3.44551E+000	-3.69573E-004	...........	-327.56
	19	50.1667	3.44553E+000	3.44552E+000	-3.71780E-004	...........	-327.56
	20	52.675	3.44553E+000	3.44554E+000	-3.72687E-004	...........	-327.56
	21	55.1833	3.44553E+000	3.44555E+000	-3.70900E-004	...........	-327.56
	22	57.6917	3.44553E+000	3.44553E+000	-3.74807E-004	...........	-327.56
	23	60.2	3.44553E+000	3.44554E+000	-3.73980E-004	...........	-327.56
	24	62.7083	3.44554E+000	3.44551E+000	-3.73080E-004	...........	-327.56
	25	65.2167	3.44554E+000	3.44552E+000	-3.74180E-004	...........	-327.56
	26	67.725	3.44553E+000	3.44550E+000	-3.70140E-004	...........	-327.56
	27	70.2333	3.44552E+000	3.44550E+000	-3.69067E-004	...........	-327.56
	28	72.7417	3.44552E+000	3.44552E+000	-3.70633E-004	...........	-327.56
	29	75.25	3.44551E+000	3.44550E+000	-3.68647E-004	...........	-327.56
	30	77.7583	3.44551E+000	3.44551E+000	-3.71700E-004	...........	-327.56
	31	80.2667	3.44551E+000	3.44551E+000	-3.66380E-004	...........	-327.56
	32	82.775	3.44551E+000	3.44551E+000	-3.70493E-004	...........	-327.56
	33	85.2833	3.44551E+000	3.44551E+000	-3.69787E-004	...........	-327.56
	34	87.7917	3.44551E+000	3.44551E+000	-3.70647E-004	...........	-327.56
	35	90.3	3.44551E+000	3.44549E+000	-3.69707E-004	...........	-327.56
	36	92.8083	3.44551E+000	3.44550E+000	-3.76140E-004	...........	-327.56
	37	95.317	3.44551E+000	3.44550E+000	-3.74580E-004	...........	-327.56
	38	97.825	3.44550E+000	3.44553E+000	-3.70740E-004	...........	-327.56
	39	100.333	3.44550E+000	3.44553E+000	-3.73513E-004	...........	-327.56
	40	102.842	3.44551E+000	3.44550E+000	-3.70947E-004	...........	-327.56
	41	105.35	3.44551E+000	3.44550E+000	-3.73340E-004	...........	-327.56
	42	107.858	3.44551E+000	3.44551E+000	-3.72607E-004	...........	-327.56
	43	110.367	3.44551E+000	3.44553E+000	-3.75160E-004	...........	-327.56
	44	112.875	3.44551E+000	3.44550E+000	-3.75000E-004	...........	-327.56
	45	115.383	3.44551E+000	3.44553E+000	-3.78313E-004	...........	-327.56
	46	117.892	3.44551E+000	3.44552E+000	-3.74240E-004	...........	-327.56
	47	120.4	3.44552E+000	3.44550E+000	-3.73513E-004	...........	-327.56
	48	122.908	3.44551E+000	3.44551E+000	-3.72333E-004	...........	-327.56
	49	125.417	3.44551E+000	3.44552E+000	-3.73480E-004	...........	-327.56
	50	127.925	3.44551E+000	3.44551E+000	-3.72453E-004	...........	-327.56
	51	130.433	3.44551E+000	3.44553E+000	-3.73413E-004	...........	-327.56
	52	132.942	3.44551E+000	3.44552E+000	-3.72733E-004	...........	-327.56
	53	135.45	3.44552E+000	3.44551E+000	-3.71573E-004	...........	-327.56
	54	137.958	3.44552E+000	3.44551E+000	-3.69887E-004	...........	-327.56
	55	140.467	3.44552E+000	3.44550E+000	-3.64733E-004	...........	-327.56
	56	142.975	3.44551E+000	3.44552E+000	-3.70620E-004	...........	-327.56
	57	145.483	3.44551E+000	3.44551E+000	-3.73533E-004	...........	-327.56
	58	147.992	3.44551E+000	3.44550E+000	-3.69893E-004	...........	-327.56
	59	150.5	3.44551E+000	3.44553E+000	-3.69793E-004	...........	-327.56
	60	153.008	3.44551E+000	3.44551E+000	-3.74420E-004	...........	-327.56
	61	155.517	3.44551E+000	3.44552E+000	-3.68093E-004	...........	-327.56
	62	158.025	3.44552E+000	3.44551E+000	-3.76900E-004	...........	-327.56
	63	160.533	3.44552E+000	3.44551E+000	-3.72893E-004	...........	-327.56
	64	163.042	3.44552E+000	3.44553E+000	-3.70227E-004	...........	-327.56
	65	165.55	3.44552E+000	3.44552E+000	-3.71447E-004	...........	-327.56
	66	168.058	3.44552E+000	3.44552E+000	-3.74713E-004	...........	-327.56
	67	170.567	3.44552E+000	3.44550E+000	-3.69467E-004	...........	-327.56
	68	173.075	3.44552E+000	3.44553E+000	-3.70400E-004	...........	-327.56
	69	175.583	3.44552E+000	3.44552E+000	-3.72667E-004	...........	-327.56
	70	178.092	3.44552E+000	3.44550E+000	-3.75547E-004	...........	-327.56
	71	180.6	3.44552E+000	3.44550E+000	-3.70420E-004	...........	-327.56
	72	183.108	3.44551E+000	3.44553E+000	-3.71187E-004	...........	-327.56
	73	185.617	3.44551E+000	3.44551E+000	-3.70413E-004	...........	-327.56
	74	188.125	3.44551E+000	3.44551E+000	-3.66393E-004	...........	-327.56
	75	190.633	3.44551E+000	3.44551E+000	-3.67213E-004	...........	-327.56
	76	193.142	3.44551E+000	3.44550E+000	-3.64693E-004	...........	-327.56
	77	195.65	3.44551E+000	3.44552E+000	-3.64480E-004	...........	-327.56
	78	198.158	3.44551E+000	3.44551E+000	-3.66673E-004	...........	-327.56
	79	200.667	3.44551E+000	3.44550E+000	-3.68773E-004	...........	-327.56
	80	203.175	3.44551E+000	3.44552E+000	-3.68507E-004	...........	-327.56
	81	205.683	3.44551E+000	3.44551E+000	-3.66807E-004	...........	-327.56
	82	208.192	3.44551E+000	3.44550E+000	-3.70713E-004	...........	-327.56
	83	210.7	3.44551E+000	3.44553E+000	-3.67920E-004	...........	-327.56
	84	213.208	3.44551E+000	3.44549E+000	-3.70060E-004	...........	-327.56
	85	215.717	3.44551E+000	3.44551E+000	-3.70553E-004	...........	-327.56
	86	218.225	3.44551E+000	3.44552E+000	-3.70520E-004	...........	-327.56
	87	220.733	3.44551E+000	3.44550E+000	-3.70100E-004	...........	-327.56
	88	223.242	3.44551E+000	3.44552E+000	-3.72047E-004	...........	-327.56
	89	225.75	3.44551E+000	3.44549E+000	-3.76200E-004	...........	-327.56
	90	228.258	3.44551E+000	3.44552E+000	-3.71633E-004	...........	-327.56
	91	230.767	3.44551E+000	3.44551E+000	-3.73667E-004	...........	-327.56
	92	233.275	3.44551E+000	3.44551E+000	-3.70460E-004	...........	-327.56
	93	235.783	3.44551E+000	3.44551E+000	-3.66127E-004	...........	-327.56
	94	238.292	3.44551E+000	3.44550E+000	-3.69893E-004	...........	-327.56
	95	240.8	3.44551E+000	3.44552E+000	-3.69760E-004	...........	-327.56
	96	243.308	3.44551E+000	3.44551E+000	-3.75907E-004	...........	-327.56
	97	245.817	3.44551E+000	3.44551E+000	-3.73947E-004	...........	-327.56
	98	248.325	3.44551E+000	3.44551E+000	-3.68627E-004	...........	-327.56
	99	250.833	3.44551E+000	3.44551E+000	-3.67653E-004	...........	-327.56
	100	253.342	3.44551E+000	3.44552E+000	-3.74260E-004	...........	-327.56
	101	255.85	3.44551E+000	3.44551E+000	-3.75200E-004	...........	-327.56
	102	258.358	3.44551E+000	3.44551E+000	-3.72880E-004	...........	-327.56
	103	260.867	3.44551E+000	3.44552E+000	-3.67107E-004	...........	-327.56
	104	263.375	3.44551E+000	3.44552E+000	-3.70233E-004	...........	-327.56
	105	265.883	3.44552E+000	3.44553E+000	-3.66420E-004	...........	-327.56
	106	268.392	3.44552E+000	3.44550E+000	-3.69307E-004	...........	-327.56
	107	270.9	3.44552E+000	3.44552E+000	-3.70367E-004	...........	-327.56
	108	273.408	3.44552E+000	3.44551E+000	-3.70253E-004	...........	-327.56
	109	275.917	3.44552E+000	3.44551E+000	-3.64960E-004	...........	-327.56
	110	278.425	3.44551E+000	3.44552E+000	-3.64220E-004	...........	-327.56
	111	280.933	3.44551E+000	3.44553E+000	-3.62500E-004	...........	-327.56
	112	283.442	3.44551E+000	3.44551E+000	-3.62780E-004	...........	-327.56
	113	285.95	3.44552E+000	3.44549E+000	-3.66000E-004	...........	-327.56
	114	288.458	3.44552E+000	3.44551E+000	-3.68320E-004	...........	-327.56
	115	290.967	3.44551E+000	3.44551E+000	-3.64167E-004	...........	-327.56
	116	293.475	3.44551E+000	3.44551E+000	-3.65773E-004	...........	-327.56
	117	295.983	3.44551E+000	3.44550E+000	-3.69067E-004	...........	-327.56
	118	298.492	3.44551E+000	3.44552E+000	-3.69053E-004	...........	-327.56
	119	301	3.44551E+000	3.44551E+000	-3.70720E-004	...........	-327.56
	120	303.508	3.44551E+000	3.44550E+000	-3.66727E-004	...........	-327.56
	121	306.017	3.44551E+000	3.44550E+000	-3.67840E-004	...........	-327.56
	122	308.525	3.44551E+000	3.44549E+000	-3.67087E-004	...........	-327.56
	123	311.033	3.44550E+000	3.44551E+000	-3.69953E-004	...........	-327.56
	124	313.542	3.44550E+000	3.44550E+000	-3.70793E-004	...........	-327.56
	125	316.05	3.44550E+000	3.44551E+000	-3.66720E-004	...........	-327.56
	126	318.558	3.44550E+000	3.44551E+000	-3.68367E-004	...........	-327.56
	127	321.067	3.44551E+000	3.44552E+000	-3.70460E-004	...........	-327.56
	128	323.575	3.44551E+000	3.44550E+000	-3.67473E-004	...........	-327.56
	129	326.083	3.44551E+000	3.44550E+000	-3.69027E-004	...........	-327.56
	130	328.592	3.44551E+000	3.44552E+000	-3.68433E-004	...........	-327.56
	131	331.1	3.44551E+000	3.44550E+000	-3.72593E-004	...........	-327.56
	132	333.608	3.44551E+000	3.44550E+000	-3.71960E-004	...........	-327.56
	133	336.117	3.44551E+000	3.44553E+000	-3.73220E-004	...........	-327.56
	134	338.625	3.44551E+000	3.44550E+000	-3.70047E-004	...........	-327.56
	135	341.133	3.44551E+000	3.44552E+000	-3.71580E-004	...........	-327.56
	136	343.642	3.44551E+000	3.44554E+000	-3.67860E-004	...........	-327.56
	137	346.15	3.44552E+000	3.44552E+000	-3.75267E-004	...........	-327.56
	138	348.658	3.44552E+000	3.44551E+000	-3.71953E-004	...........	-327.56
	139	351.167	3.44552E+000	3.44552E+000	-3.68587E-004	...........	-327.56
	140	353.675	3.44552E+000	3.44551E+000	-3.70420E-004	...........	-327.56
	141	356.183	3.44552E+000	3.44551E+000	-3.71600E-004	...........	-327.56
	142	358.692	3.44552E+000	3.44551E+000	-3.69493E-004	...........	-327.56
	143	361.2	3.44551E+000	3.44550E+000	-3.70620E-004	...........	-327.56
	144	363.708	3.44551E+000	3.44552E+000	-3.72240E-004	...........	-327.56
	145	366.217	3.44551E+000	3.44555E+000	-3.72740E-004	...........	-327.56
	146	368.725	3.44551E+000	3.44552E+000	-3.71860E-004	...........	-327.56
	147	371.233	3.44552E+000	3.44550E+000	-3.68933E-004	...........	-327.56
	148	373.742	3.44552E+000	3.44554E+000	-3.72940E-004	...........	-327.56
	149	376.25	3.44552E+000	3.44552E+000	-3.73793E-004	...........	-327.56
	150	378.758	3.44552E+000	3.44554E+000	-3.67513E-004	...........	-327.56
	151	381.267	3.44553E+000	3.44555E+000	-3.73113E-004	...........	-327.56
	152	383.775	3.44553E+000	3.44552E+000	-3.73080E-004	...........	-327.56
	153	386.283	3.44553E+000	3.44550E+000	-3.66980E-004	...........	-327.56
	154	388.792	3.44553E+000	3.44551E+000	-3.70007E-004	...........	-327.56
	155	391.3	3.44552E+000	3.44552E+000	-3.69207E-004	...........	-327.56
	156	393.808	3.44552E+000	3.44551E+000	-3.68887E-004	...........	-327.56
	157	396.317	3.44551E+000	3.44552E+000	-3.74587E-004	...........	-327.56
	158	398.825	3.44551E+000	3.44550E+000	-3.72160E-004	...........	-327.56
	159	401.333	3.44551E+000	3.44550E+000	-3.71520E-004	...........	-327.56
	160	403.842	3.44551E+000	3.44552E+000	-3.71307E-004	...........	-327.56
	161	406.35	3.44551E+000	3.44549E+000	-3.77067E-004	...........	-327.56
	162	408.858	3.44551E+000	3.44551E+000	-3.70813E-004	...........	-327.56
	163	411.367	3.44551E+000	3.44550E+000	-3.67760E-004	...........	-327.56
	164	413.875	3.44551E+000	3.44550E+000	-3.72453E-004	...........	-327.56
	165	416.383	3.44551E+000	3.44551E+000	-3.73673E-004	...........	-327.56
	166	418.892	3.44550E+000	3.44551E+000	-3.73040E-004	...........	-327.56
	167	421.4	3.44551E+000	3.44552E+000	-3.69460E-004	...........	-327.56
	168	423.908	3.44551E+000	3.44551E+000	-3.71267E-004	...........	-327.56
	169	426.417	3.44551E+000	3.44552E+000	-3.76253E-004	...........	-327.56
	170	428.925	3.44551E+000	3.44552E+000	-3.74273E-004	...........	-327.56
	171	431.433	3.44552E+000	3.44551E+000	-3.72793E-004	...........	-327.56
	172	433.942	3.44552E+000	3.44550E+000	-3.75447E-004	...........	-327.56
	173	436.45	3.44551E+000	3.44549E+000	-3.74473E-004	...........	-327.56
	174	438.958	3.44551E+000	3.44552E+000	-3.73313E-004	...........	-327.56
	175	441.467	3.44550E+000	3.44552E+000	-3.72107E-004	...........	-327.56
	176	443.975	3.44551E+000	3.44551E+000	-3.73867E-004	...........	-327.56
	177	446.483	3.44551E+000	3.44550E+000	-3.72513E-004	...........	-327.56
	178	448.992	3.44551E+000	3.44551E+000	-3.75453E-004	...........	-327.56
	179	451.5	3.44551E+000	3.44551E+000	-3.74907E-004	...........	-327.56
	180	454.008	3.44551E+000	3.44551E+000	-3.75107E-004	...........	-327.56
	181	456.517	3.44551E+000	3.44552E+000	-3.75233E-004	...........	-327.56
	182	459.025	3.44551E+000	3.44550E+000	-3.72693E-004	...........	-327.56
	183	461.533	3.44551E+000	3.44550E+000	-3.70533E-004	...........	-327.56
	184	464.042	3.44551E+000	3.44550E+000	-3.73473E-004	...........	-327.56
	185	466.55	3.44551E+000	3.44549E+000	-3.72593E-004	...........	-327.56
	186	469.058	3.44550E+000	3.44550E+000	-3.73907E-004	...........	-327.56
	187	471.567	3.44550E+000	3.44552E+000	-3.69987E-004	...........	-327.56
	188	474.075	3.44550E+000	3.44552E+000	-3.70413E-004	...........	-327.56
	189	476.583	3.44551E+000	3.44552E+000	-3.73647E-004	...........	-327.56
	190	479.092	3.44551E+000	3.44551E+000	-3.75227E-004	...........	-327.56
	191	481.6	3.44552E+000	3.44552E+000	-3.77040E-004	...........	-327.56
	192	484.108	3.44552E+000	3.44550E+000	-3.75307E-004	...........	-327.56
	193	486.617	3.44552E+000	3.44549E+000	-3.66953E-004	...........	-327.56
	194	489.125	3.44551E+000	3.44552E+000	-3.73773E-004	...........	-327.56
	195	491.633	3.44551E+000	3.44551E+000	-3.71980E-004	...........	-327.56
	196	494.142	3.44551E+000	3.44550E+000	-3.68393E-004	...........	-327.56
	197	496.65	3.44551E+000	3.44550E+000	-3.69260E-004	...........	-327.56
	198	499.158	3.44551E+000	3.44553E+000	-3.69027E-004	...........	-327.56
	199	501.667	3.44551E+000	3.44552E+000	-3.65573E-004	...........	-327.56
	200	504.175	3.44551E+000	3.44551E+000	-3.71687E-004	...........	-327.56
	201	506.683	3.44551E+000	3.44550E+000	-3.64920E-004	...........	-327.56
	202	509.192	3.44551E+000	3.44552E+000	-3.67453E-004	...........	-327.56
	203	511.7	3.44551E+000	3.44550E+000	-3.74167E-004	...........	-327.56
	204	514.208	3.44551E+000	3.44551E+000	-3.71073E-004	...........	-327.56
	205	516.717	3.44551E+000	3.44552E+000	-3.69753E-004	...........	-327.56
	206	519.225	3.44551E+000	3.44550E+000	-3.72667E-004	...........	-327.56
	207	521.733	3.44551E+000	3.44553E+000	-3.77980E-004	...........	-327.56
	208	524.242	3.44551E+000	3.44550E+000	-3.77027E-004	...........	-327.56
	209	526.75	3.44551E+000	3.44552E+000	-3.73720E-004	...........	-327.56
	210	529.258	3.44552E+000	3.44552E+000	-3.69213E-004	...........	-327.56
	211	531.767	3.44552E+000	3.44553E+000	-3.73793E-004	...........	-327.56
	212	534.275	3.44552E+000	3.44552E+000	-3.72360E-004	...........	-327.56
	213	536.783	3.44552E+000	3.44551E+000	-3.70500E-004	...........	-327.56
	214	539.292	3.44552E+000	3.44552E+000	-3.67487E-004	...........	-327.56
	215	541.8	3.44552E+000	3.44551E+000	-3.69840E-004	...........	-327.56
	216	544.308	3.44552E+000	3.44552E+000	-3.69367E-004	...........	-327.56
	217	546.817	3.44552E+000	3.44550E+000	-3.71513E-004	...........	-327.56
	218	549.325	3.44551E+000	3.44551E+000	-3.64267E-004	...........	-327.56
	219	551.833	3.44551E+000	3.44551E+000	-3.72427E-004	...........	-327.56
	220	554.342	3.44551E+000	3.44552E+000	-3.70120E-004	...........	-327.56
	221	556.85	3.44551E+000	3.44553E+000	-3.65360E-004	...........	-327.56
	222	559.358	3.44551E+000	3.44552E+000	-3.72093E-004	...........	-327.56
	223	561.867	3.44552E+000	3.44551E+000	-3.67900E-004	...........	-327.56
	224	564.375	3.44552E+000	3.44553E+000	-3.71560E-004	...........	-327.56
	225	566.883	3.44552E+000	3.44551E+000	-3.73113E-004	...........	-327.56
	226	569.392	3.44552E+000	3.44552E+000	-3.74053E-004	...........	-327.56
	227	571.9	3.44552E+000	3.44551E+000	-3.72173E-004	...........	-327.56
	228	574.408	3.44552E+000	3.44552E+000	-3.69353E-004	...........	-327.56
	229	576.917	3.44552E+000	3.44551E+000	-3.72320E-004	...........	-327.56
	230	579.425	3.44551E+000	3.44551E+000	-3.67633E-004	...........	-327.56
	231	581.933	3.44551E+000	3.44550E+000	-3.70793E-004	...........	-327.56
	232	584.442	3.44551E+000	3.44551E+000	-3.69553E-004	...........	-327.56
	233	586.95	3.44551E+000	3.44551E+000	-3.67833E-004	...........	-327.56
	234	589.458	3.44551E+000	3.44551E+000	-3.73813E-004	...........	-327.56
	235	591.967	3.44551E+000	3.44550E+000	-3.70453E-004	...........	-327.56
	236	594.475	3.44551E+000	3.44551E+000	-3.71187E-004	...........	-327.56
	237	596.983	3.44551E+000	3.44549E+000	-3.76020E-004	...........	-327.56
	238	599.492	3.44551E+000	3.44550E+000	-3.70520E-004	...........	-327.56
	239	602	3.44551E+000	3.44552E+000	-3.70567E-004	...........	-327.56
	240	604.508	3.44550E+000	3.44549E+000	-3.71173E-004	...........	-327.56
	241	607.017	3.44550E+000	3.44548E+000	-3.70827E-004	...........	-327.56
	242	609.525	3.44550E+000	3.44550E+000	-3.68187E-004	...........	-327.56
	243	612.033	3.44550E+000	3.44551E+000	-3.68960E-004	...........	-327.56
	244	614.542	3.44550E+000	3.44551E+000	-3.74640E-004	...........	-327.56
	245	617.05	3.44550E+000	3.44549E+000	-3.74693E-004	...........	-327.56
	246	619.558	3.44550E+000	3.44552E+000	-3.72353E-004	...........	-327.56
	247	622.067	3.44551E+000	3.44551E+000	-3.69040E-004	...........	-327.56
	248	624.575	3.44551E+000	3.44553E+000	-3.70653E-004	...........	-327.56
	249	627.083	3.44551E+000	3.44549E+000	-3.72527E-004	...........	-327.56
	250	629.592	3.44551E+000	3.44551E+000	-3.74420E-004	...........	-327.56
	251	632.1	3.44551E+000	3.44551E+000	-3.75593E-004	...........	-327.56
	252	634.608	3.44551E+000	3.44552E+000	-3.73120E-004	...........	-327.56
	253	637.117	3.44551E+000	3.44551E+000	-3.73040E-004	...........	-327.56
	254	639.625	3.44551E+000	3.44553E+000	-3.74287E-004	...........	-327.56
	255	642.133	3.44551E+000	3.44549E+000	-3.72260E-004	...........	-327.56
	256	644.642	3.44551E+000	3.44550E+000	-3.69927E-004	...........	-327.56
	257	647.15	3.44551E+000	3.44551E+000	-3.68847E-004	...........	-327.56
	258	649.658	3.44551E+000	3.44550E+000	-3.74687E-004	...........	-327.56
	259	652.167	3.44550E+000	3.44552E+000	-3.68520E-004	...........	-327.56
	260	654.675	3.44550E+000	3.44551E+000	-3.66193E-004	...........	-327.56
	261	657.183	3.44551E+000	3.44550E+000	-3.71087E-004	...........	-327.56
	262	659.692	3.44551E+000	3.44550E+000	-3.69387E-004	...........	-327.56
	263	662.2	3.44551E+000	3.44552E+000	-3.73013E-004	...........	-327.56
	264	664.708	3.44551E+000	3.44551E+000	-3.65427E-004	...........	-327.56
	265	667.217	3.44551E+000	3.44551E+000	-3.69353E-004	...........	-327.56
	266	669.725	3.44551E+000	3.44550E+000	-3.70140E-004	...........	-327.56
	267	672.233	3.44551E+000	3.44550E+000	-3.68720E-004	...........	-327.56
	268	674.742	3.44551E+000	3.44551E+000	-3.70280E-004	...........	-327.56
	269	677.25	3.44550E+000	3.44551E+000	-3.70880E-004	...........	-327.56
	270	679.758	3.44550E+000	3.44551E+000	-3.67993E-004	...........	-327.56
	271	682.267	3.44551E+000	3.44550E+000	-3.74000E-004	...........	-327.56
	272	684.775	3.44551E+000	3.44552E+000	-3.69533E-004	...........	-327.56
	273	687.283	3.44551E+000	3.44552E+000	-3.72527E-004	...........	-327.56
	274	689.792	3.44551E+000	3.44551E+000	-3.74940E-004	...........	-327.56
	275	692.3	3.44551E+000	3.44550E+000	-3.71967E-004	...........	-327.56
	276	694.808	3.44551E+000	3.44554E+000	-3.70453E-004	...........	-327.56
	277	697.317	3.44551E+000	3.44551E+000	-3.71947E-004	...........	-327.56
	278	699.825	3.44552E+000	3.44552E+000	-3.74480E-004	...........	-327.56
	279	702.333	3.44552E+000	3.44551E+000	-3.72740E-004	...........	-327.56
	280	704.842	3.44552E+000	3.44551E+000	-3.73740E-004	...........	-327.56
	281	707.35	3.44552E+000	3.44552E+000	-3.75147E-004	...........	-327.56
	282	709.858	3.44551E+000	3.44552E+000	-3.69480E-004	...........	-327.56
	283	712.367	3.44552E+000	3.44550E+000	-3.75613E-004	...........	-327.56
	284	714.875	3.44552E+000	3.44552E+000	-3.71367E-004	...........	-327.56
	285	717.383	3.44551E+000	3.44549E+000	-3.73000E-004	...........	-327.56
	286	719.892	3.44551E+000	3.44551E+000	-3.73400E-004	...........	-327.56
	287	722.4	3.44551E+000	3.44550E+000	-3.66460E-004	...........	-327.56
	288	724.908	3.44551E+000	3.44551E+000	-3.66033E-004	...........	-327.56
	289	727.417	3.44550E+000	3.44550E+000	-3.71800E-004	...........	-327.56
	290	729.925	3.44550E+000	3.44554E+000	-3.71507E-004	...........	-327.56
	291	732.433	3.44551E+000	3.44554E+000	-3.74667E-004	...........	-327.56
	292	734.942	3.44551E+000	3.44548E+000	-3.74187E-004	...........	-327.56
	293	737.45	3.44552E+000	3.44550E+000	-3.74167E-004	...........	-327.56
	294	739.958	3.44551E+000	3.44550E+000	-3.72053E-004	...........	-327.56
	295	742.467	3.44551E+000	3.44553E+000	-3.69793E-004	...........	-327.56
	296	744.975	3.44550E+000	3.44551E+000	-3.67893E-004	...........	-327.56
	297	747.483	3.44551E+000	3.44549E+000	-3.72760E-004	...........	-327.56
	298	749.992	3.44551E+000	3.44552E+000	-3.72320E-004	...........	-327.56
	299	752.5	3.44551E+000	3.44550E+000	-3.73840E-004	...........	-327.56
	300	755.008	3.44551E+000	3.44552E+000	-3.70100E-004	...........	-327.56
	301	757.517	3.44551E+000	3.44552E+000	-3.74307E-004	...........	-327.56
	302	760.025	3.44551E+000	3.44551E+000	-3.71093E-004	...........	-327.56
	303	762.533	3.44551E+000	3.44550E+000	-3.73547E-004	...........	-327.56
	304	765.042	3.44551E+000	3.44552E+000	-3.75093E-004	...........	-327.56
	305	767.55	3.44551E+000	3.44550E+000	-3.78707E-004	...........	-327.56
	306	770.058	3.44551E+000	3.44549E+000	-3.74587E-004	...........	-327.56
	307	772.567	3.44551E+000	3.44551E+000	-3.67760E-004	...........	-327.56
	308	775.075	3.44550E+000	3.44550E+000	-3.72200E-004	...........	-327.56
	309	777.583	3.44550E+000	3.44550E+000	-3.72873E-004	...........	-327.56
	310	780.092	3.44550E+000	3.44549E+000	-3.74473E-004	...........	-327.56
	311	782.6	3.44550E+000	3.44549E+000	-3.72013E-004	...........	-327.56
	312	785.108	3.44550E+000	3.44550E+000	-3.69447E-004	...........	-327.56
	313	787.617	3.44550E+000	3.44551E+000	-3.70340E-004	...........	-327.56
	314	790.125	3.44550E+000	3.44550E+000	-3.74920E-004	...........	-327.56
	315	792.633	3.44550E+000	3.44551E+000	-3.69420E-004	...........	-327.56
	316	795.142	3.44550E+000	3.44551E+000	-3.71447E-004	...........	-327.56
	317	797.65	3.44551E+000	3.44555E+000	-3.68453E-004	...........	-327.56
	318	800.158	3.44551E+000	3.44554E+000	-3.67667E-004	...........	-327.56
	319	802.667	3.44552E+000	3.44553E+000	-3.71920E-004	...........	-327.56
	320	805.175	3.44553E+000	3.44554E+000	-3.72620E-004	...........	-327.56
	321	807.683	3.44554E+000	3.44554E+000	-3.71373E-004	...........	-327.56
	322	810.192	3.44554E+000	3.44550E+000	-3.74953E-004	...........	-327.56
	323	812.7	3.44554E+000	3.44551E+000	-3.77180E-004	...........	-327.56
	324	815.208	3.44553E+000	3.44549E+000	-3.74053E-004	...........	-327.56
	325	817.717	3.44552E+000	3.44552E+000	-3.73900E-004	...........	-327.56
	326	820.225	3.44551E+000	3.44550E+000	-3.71240E-004	...........	-327.56
	327	822.733	3.44551E+000	3.44550E+000	-3.76367E-004	...........	-327.56
	328	825.242	3.44551E+000	3.44550E+000	-3.75320E-004	...........	-327.56
	329	827.75	3.44550E+000	3.44550E+000	-3.72440E-004	...........	-327.56
	330	830.258	3.44550E+000	3.44550E+000	-3.69920E-004	...........	-327.56
	331	832.767	3.44550E+000	3.44551E+000	-3.76373E-004	...........	-327.56
	332	835.275	3.44550E+000	3.44552E+000	-3.77447E-004	...........	-327.56
	333	837.783	3.44551E+000	3.44551E+000	-3.77033E-004	...........	-327.56
	334	840.292	3.44551E+000	3.44550E+000	-3.73927E-004	...........	-327.56
	335	842.8	3.44551E+000	3.44550E+000	-3.77020E-004	...........	-327.56
	336	845.308	3.44551E+000	3.44550E+000	-3.71220E-004	...........	-327.56
	337	847.817	3.44550E+000	3.44549E+000	-3.70667E-004	...........	-327.56
	338	850.325	3.44550E+000	3.44550E+000	-3.70213E-004	...........	-327.56
	339	852.833	3.44550E+000	3.44551E+000	-3.71893E-004	...........	-327.56
	340	855.342	3.44550E+000	3.44550E+000	-3.72193E-004	...........	-327.56
	341	857.85	3.44550E+000	3.44551E+000	-3.72400E-004	...........	-327.56
	342	860.358	3.44550E+000	3.44552E+000	-3.71953E-004	...........	-327.56
	343	862.867	3.44551E+000	3.44551E+000	-3.70560E-004	...........	-327.56
	344	865.375	3.44551E+000	3.44550E+000	-3.74867E-004	...........	-327.56
	345	867.883	3.44551E+000	3.44552E+000	-3.71187E-004	...........	-327.56
	346	870.392	3.44551E+000	3.44549E+000	-3.66553E-004	...........	-327.56
	347	872.9	3.44551E+000	3.44551E+000	-3.69520E-004	...........	-327.56
	348	875.408	3.44551E+000	3.44552E+000	-3.71033E-004	...........	-327.56
	349	877.917	3.44551E+000	3.44550E+000	-3.66953E-004	...........	-327.56
	350	880.425	3.44551E+000	3.44549E+000	-3.66887E-004	...........	-327.56
	351	882.933	3.44551E+000	3.44551E+000	-3.73907E-004	...........	-327.56
	352	885.442	3.44551E+000	3.44550E+000	-3.72340E-004	...........	-327.56
	353	887.95	3.44551E+000	3.44551E+000	-3.69447E-004	...........	-327.56
	354	890.458	3.44551E+000	3.44550E+000	-3.69833E-004	...........	-327.56
	355	892.967	3.44551E+000	3.44552E+000	-3.68073E-004	...........	-327.56
	356	895.475	3.44551E+000	3.44551E+000	-3.69940E-004	...........	-327.56
	357	897.983	3.44551E+000	3.44549E+000	-3.72273E-004	...........	-327.56
	358	900.492	3.44551E+000	3.44550E+000	-3.70433E-004	...........	-327.56
	359	903	3.44550E+000	3.44550E+000	-3.69747E-004	...........	-327.56
	360	905.508	3.44550E+000	3.44549E+000	-3.67467E-004	...........	-327.56
	361	908.017	3.44550E+000	3.44550E+000	-3.66287E-004	...........	-327.56
	362	910.525	3.44550E+000	3.44550E+000	-3.66687E-004	...........	-327.56
	363	913.033	3.44550E+000	3.44550E+000	-3.65480E-004	...........	-327.56
	364	915.542	3.44550E+000	3.44550E+000	-3.68273E-004	...........	-327.56
	365	918.05	3.44550E+000	3.44552E+000	-3.68187E-004	...........	-327.56
	366	920.558	3.44550E+000	3.44551E+000	-3.67627E-004	...........	-327.56
	367	923.067	3.44551E+000	3.44549E+000	-3.66307E-004	...........	-327.56
	368	925.575	3.44551E+000	3.44550E+000	-3.65073E-004	...........	-327.56
	369	928.083	3.44551E+000	3.44551E+000	-3.65167E-004	...........	-327.56
	370	930.592	3.44550E+000	3.44551E+000	-3.68840E-004	...........	-327.56
	371	933.1	3.44550E+000	3.44549E+000	-3.69133E-004	...........	-327.56
	372	935.608	3.44550E+000	3.44551E+000	-3.67193E-004	...........	-327.56
	373	938.117	3.44550E+000	3.44551E+000	-3.69880E-004	...........	-327.56
	374	940.625	3.44550E+000	3.44550E+000	-3.67660E-004	...........	-327.56
	375	943.133	3.44550E+000	3.44550E+000	-3.67560E-004	...........	-327.56
	376	945.642	3.44550E+000	3.44550E+000	-3.66773E-004	...........	-327.56
	377	948.15	3.44550E+000	3.44552E+000	-3.67647E-004	...........	-327.56
	378	950.66	3.44551E+000	3.44550E+000	-3.68040E-004	...........	-327.56
	379	953.17	3.44551E+000	3.44552E+000	-3.68233E-004	...........	-327.56
	380	955.68	3.44551E+000	3.44549E+000	-3.69253E-004	...........	-327.56
	381	958.18	3.44551E+000	3.44549E+000	-3.71313E-004	...........	-327.56
	382	960.69	3.44550E+000	3.44550E+000	-3.69167E-004	...........	-327.56
	383	963.2	3.44550E+000	3.44553E+000	-3.75560E-004	...........	-327.56
	384	965.71	3.44550E+000	3.44550E+000	-3.68813E-004	...........	-327.56
	385	968.22	3.44550E+000	3.44549E+000	-3.66487E-004	...........	-327.56
	386	970.73	3.44551E+000	3.44549E+000	-3.62333E-004	...........	-327.56
	387	973.23	3.44550E+000	3.44550E+000	-3.67580E-004	...........	-327.56
	388	975.74	3.44550E+000	3.44550E+000	-3.68807E-004	...........	-327.56
	389	978.25	3.44550E+000	3.44552E+000	-3.65500E-004	...........	-327.56
	390	980.76	3.44550E+000	3.44549E+000	-3.66220E-004	...........	-327.56
	391	983.27	3.44550E+000	3.44550E+000	-3.68693E-004	...........	-327.56
	392	985.78	3.44550E+000	3.44550E+000	-3.70453E-004	...........	-327.56
	393	988.28	3.44550E+000	3.44549E+000	-3.68667E-004	...........	-327.56
	394	990.79	3.44550E+000	3.44549E+000	-3.64407E-004	...........	-327.56
	395	993.3	3.44550E+000	3.44550E+000	-3.64467E-004	...........	-327.56
	396	995.81	3.44550E+000	3.44552E+000	-3.73140E-004	...........	-327.56
	397	998.32	3.44550E+000	3.44551E+000	-3.70260E-004	...........	-327.56
	398	1000.83	3.44550E+000	3.44550E+000	-3.69133E-004	...........	-327.56
	399	1003.33	3.44551E+000	3.44550E+000	-3.68313E-004	...........	-327.56
	400	1005.84	3.44551E+000	3.44550E+000	-3.69393E-004	...........	-327.56
	401	1008.35	3.44551E+000	3.44551E+000	-3.67080E-004	...........	-327.56
	402	1010.86	3.44550E+000	3.44550E+000	-3.68593E-004	...........	-327.56
	403	1013.37	3.44550E+000	3.44551E+000	-3.67740E-004	...........	-327.56
	404	1015.88	3.44550E+000	3.44551E+000	-3.69433E-004	...........	-327.56
	405	1018.38	3.44551E+000	3.44551E+000	-3.70760E-004	...........	-327.56
	406	1020.89	3.44551E+000	3.44552E+000	-3.67720E-004	...........	-327.56
	407	1023.4	3.44551E+000	3.44550E+000	-3.67187E-004	...........	-327.56
	408	1025.91	3.44551E+000	3.44551E+000	-3.65593E-004	...........	-327.56
	409	1028.42	3.44551E+000	3.44551E+000	-3.69680E-004	...........	-327.56
	410	1030.93	3.44551E+000	3.44551E+000	-3.72520E-004	...........	-327.56
	411	1033.43	3.44551E+000	3.44553E+000	-3.69267E-004	...........	-327.56
	412	1035.94	3.44551E+000	3.44551E+000	-3.70513E-004	...........	-327.56
	413	1038.45	3.44551E+000	3.44551E+000	-3.68380E-004	...........	-327.56
	414	1040.96	3.44551E+000	3.44551E+000	-3.64433E-004	...........	-327.56
	415	1043.47	3.44551E+000	3.44550E+000	-3.67833E-004	...........	-327.56
	416	1045.98	3.44551E+000	3.44551E+000	-3.65313E-004	...........	-327.56
	417	1048.48	3.44551E+000	3.44551E+000	-3.65287E-004	...........	-327.56
	418	1050.99	3.44551E+000	3.44549E+000	-3.70973E-004	...........	-327.56
	419	1053.5	3.44550E+000	3.44552E+000	-3.71107E-004	...........	-327.56
	420	1056.01	3.44550E+000	3.44550E+000	-3.70340E-004	...........	-327.56
	421	1058.52	3.44550E+000	3.44552E+000	-3.69333E-004	...........	-327.56
	422	1061.03	3.44551E+000	3.44552E+000	-3.68060E-004	...........	-327.56
	423	1063.53	3.44551E+000	3.44552E+000	-3.73007E-004	...........	-327.56
	424	1066.04	3.44552E+000	3.44553E+000	-3.74507E-004	...........	-327.56
	425	1068.55	3.44552E+000	3.44550E+000	-3.69773E-004	...........	-327.56
	426	1071.06	3.44552E+000	3.44551E+000	-3.69853E-004	...........	-327.56
	427	1073.57	3.44552E+000	3.44551E+000	-3.72700E-004	...........	-327.56
	428	1076.08	3.44552E+000	3.44551E+000	-3.71400E-004	...........	-327.56
	429	1078.58	3.44551E+000	3.44552E+000	-3.72107E-004	...........	-327.56
	430	1081.09	3.44551E+000	3.44552E+000	-3.75920E-004	...........	-327.56
	431	1083.6	3.44552E+000	3.44551E+000	-3.70353E-004	...........	-327.56
	432	1086.11	3.44552E+000	3.44551E+000	-3.72373E-004	...........	-327.56
	433	1088.62	3.44552E+000	3.44553E+000	-3.73713E-004	...........	-327.56
	434	1091.13	3.44552E+000	3.44551E+000	-3.72267E-004	...........	-327.56
	435	1093.63	3.44552E+000	3.44553E+000	-3.71913E-004	...........	-327.56
	436	1096.14	3.44552E+000	3.44552E+000	-3.73167E-004	...........	-327.56
	437	1098.65	3.44552E+000	3.44550E+000	-3.70607E-004	...........	-327.56
	438	1101.16	3.44552E+000	3.44552E+000	-3.65760E-004	...........	-327.56
	439	1103.67	3.44552E+000	3.44551E+000	-3.71053E-004	...........	-327.56
	440	1106.18	3.44552E+000	3.44550E+000	-3.71620E-004	...........	-327.56
	441	1108.68	3.44551E+000	3.44550E+000	-3.74653E-004	...........	-327.56
	442	1111.19	3.44551E+000	3.44551E+000	-3.73260E-004	...........	-327.56
	443	1113.7	3.44551E+000	3.44552E+000	-3.73973E-004	...........	-327.56
	444	1116.21	3.44551E+000	3.44552E+000	-3.78060E-004	...........	-327.56
	445	1118.72	3.44551E+000	3.44553E+000	-3.73007E-004	...........	-327.56
	446	1121.23	3.44552E+000	3.44551E+000	-3.71133E-004	...........	-327.56
	447	1123.73	3.44552E+000	3.44551E+000	-3.73073E-004	...........	-327.56
	448	1126.24	3.44552E+000	3.44551E+000	-3.74447E-004	...........	-327.56
	449	1128.75	3.44552E+000	3.44551E+000	-3.75047E-004	...........	-327.56
	450	1131.26	3.44551E+000	3.44550E+000	-3.74613E-004	...........	-327.56
	451	1133.77	3.44551E+000	3.44551E+000	-3.72580E-004	...........	-327.56
	452	1136.28	3.44551E+000	3.44552E+000	-3.73560E-004	...........	-327.56
	453	1138.78	3.44551E+000	3.44551E+000	-3.72420E-004	...........	-327.56
	454	1141.29	3.44551E+000	3.44555E+000	-3.71947E-004	...........	-327.56
	455	1143.8	3.44551E+000	3.44553E+000	-3.69767E-004	...........	-327.56
	456	1146.31	3.44552E+000	3.44551E+000	-3.67980E-004	...........	-327.56
	457	1148.82	3.44553E+000	3.44550E+000	-3.73060E-004	...........	-327.56
	458	1151.33	3.44553E+000	3.44553E+000	-3.67927E-004	...........	-327.56
	459	1153.83	3.44552E+000	3.44551E+000	-3.71147E-004	...........	-327.56
	460	1156.34	3.44552E+000	3.44551E+000	-3.71587E-004	...........	-327.56
	461	1158.85	3.44552E+000	3.44553E+000	-3.76113E-004	...........	-327.56
	462	1161.36	3.44552E+000	3.44552E+000	-3.70607E-004	...........	-327.56
	463	1163.87	3.44552E+000	3.44550E+000	-3.73400E-004	...........	-327.56
	464	1166.38	3.44552E+000	3.44551E+000	-3.72860E-004	...........	-327.56
	465	1168.88	3.44551E+000	3.44552E+000	-3.73947E-004	...........	-327.56
	466	1171.39	3.44551E+000	3.44552E+000	-3.71640E-004	...........	-327.56
	467	1173.9	3.44551E+000	3.44552E+000	-3.78060E-004	...........	-327.56
	468	1176.41	3.44552E+000	3.44550E+000	-3.78173E-004	...........	-327.56
	469	1178.92	3.44552E+000	3.44550E+000	-3.79953E-004	...........	-327.56
	470	1181.43	3.44551E+000	3.44552E+000	-3.76160E-004	...........	-327.56
	471	1183.93	3.44551E+000	3.44551E+000	-3.73953E-004	...........	-327.56
	472	1186.44	3.44551E+000	3.44551E+000	-3.75567E-004	...........	-327.56
	473	1188.95	3.44551E+000	3.44552E+000	-3.71100E-004	...........	-327.56
	474	1191.46	3.44551E+000	3.44551E+000	-3.68187E-004	...........	-327.56
	475	1193.97	3.44551E+000	3.44552E+000	-3.69487E-004	...........	-327.56
	476	1196.48	3.44551E+000	3.44552E+000	-3.64520E-004	...........	-327.56
	477	1198.98	3.44552E+000	3.44551E+000	-3.67387E-004	...........	-327.56
	478	1201.49	3.44552E+000	3.44553E+000	-3.69893E-004	...........	-327.56
	479	1204	3.44552E+000	3.44552E+000	-3.67520E-004	...........	-327.56
	480	1206.51	3.44552E+000	3.44550E+000	-3.68580E-004	...........	-327.56
	481	1209.02	3.44552E+000	3.44554E+000	-3.67500E-004	...........	-327.56
	482	1211.53	3.44552E+000	3.44550E+000	-3.69160E-004	...........	-327.56
	483	1214.03	3.44552E+000	3.44552E+000	-3.64167E-004	...........	-327.56
	484	1216.54	3.44552E+000	3.44551E+000	-3.65667E-004	...........	-327.56
	485	1219.05	3.44552E+000	3.44549E+000	-3.62320E-004	...........	-327.56
	486	1221.56	3.44551E+000	3.44550E+000	-3.63853E-004	...........	-327.56
	487	1224.07	3.44551E+000	3.44550E+000	-3.65667E-004	...........	-327.56
	488	1226.58	3.44550E+000	3.44552E+000	-3.69413E-004	...........	-327.56
	489	1229.08	3.44550E+000	3.44552E+000	-3.65940E-004	...........	-327.56
	490	1231.59	3.44551E+000	3.44551E+000	-3.65500E-004	...........	-327.56
	491	1234.1	3.44551E+000	3.44553E+000	-3.65933E-004	...........	-327.56
	492	1236.61	3.44551E+000	3.44551E+000	-3.67887E-004	...........	-327.56
	493	1239.12	3.44552E+000	3.44551E+000	-3.62767E-004	...........	-327.56
	494	1241.63	3.44552E+000	3.44551E+000	-3.66900E-004	...........	-327.56
	495	1244.13	3.44551E+000	3.44552E+000	-3.64193E-004	...........	-327.56
	496	1246.64	3.44551E+000	3.44551E+000	-3.70633E-004	...........	-327.56
	497	1249.15	3.44551E+000	3.44553E+000	-3.69127E-004	...........	-327.56
	498	1251.66	3.44551E+000	3.44552E+000	-3.69213E-004	...........	-327.56
	499	1254.17	3.44552E+000	3.44552E+000	-3.67453E-004	...........	-327.56
	500	1256.68	3.44552E+000	3.44550E+000	-3.70080E-004	...........	-327.56
	501	1259.18	3.44552E+000	3.44553E+000	-3.70320E-004	...........	-327.56
	502	1261.69	3.44552E+000	3.44552E+000	-3.69600E-004	...........	-327.56
	503	1264.2	3.44552E+000	3.44554E+000	-3.71180E-004	...........	-327.56
	504	1266.71	3.44552E+000	3.44552E+000	-3.72200E-004	...........	-327.56
	505	1269.22	3.44553E+000	3.44552E+000	-3.72693E-004	...........	-327.56
	506	1271.73	3.44553E+000	3.44553E+000	-3.70800E-004	...........	-327.56
	507	1274.23	3.44553E+000	3.44553E+000	-3.69707E-004	...........	-327.56
	508	1276.74	3.44553E+000	3.44553E+000	-3.72820E-004	...........	-327.56
	509	1279.25	3.44552E+000	3.44552E+000	-3.69887E-004	...........	-327.56
	510	1281.76	3.44552E+000	3.44551E+000	-3.69620E-004	...........	-327.56
	511	1284.27	3.44552E+000	3.44553E+000	-3.68500E-004	...........	-327.56
	512	1286.78	3.44552E+000	3.44554E+000	-3.68567E-004	...........	-327.56
	513	1289.28	3.44552E+000	3.44553E+000	-3.70300E-004	...........	-327.56
	514	1291.79	3.44553E+000	3.44551E+000	-3.70260E-004	...........	-327.56
	515	1294.3	3.44553E+000	3.44552E+000	-3.70053E-004	...........	-327.56
	516	1296.81	3.44553E+000	3.44554E+000	-3.67887E-004	...........	-327.56
	517	1299.32	3.44553E+000	3.44550E+000	-3.69307E-004	...........	-327.56
	518	1301.83	3.44552E+000	3.44553E+000	-3.72747E-004	...........	-327.56
	519	1304.33	3.44552E+000	3.44552E+000	-3.66887E-004	...........	-327.56
	520	1306.84	3.44552E+000	3.44553E+000	-3.72533E-004	...........	-327.56
	521	1309.35	3.44552E+000	3.44551E+000	-3.69680E-004	...........	-327.56
	522	1311.86	3.44552E+000	3.44551E+000	-3.71547E-004	...........	-327.56
	523	1314.37	3.44552E+000	3.44552E+000	-3.66913E-004	...........	-327.56
	524	1316.88	3.44552E+000	3.44549E+000	-3.71453E-004	...........	-327.56
	525	1319.38	3.44551E+000	3.44553E+000	-3.68553E-004	...........	-327.56
	526	1321.89	3.44551E+000	3.44549E+000	-3.67227E-004	...........	-327.56
	527	1324.4	3.44551E+000	3.44553E+000	-3.70513E-004	...........	-327.56
	528	1326.91	3.44551E+000	3.44550E+000	-3.69827E-004	...........	-327.56
	529	1329.42	3.44551E+000	3.44549E+000	-3.68867E-004	...........	-327.56
	530	1331.93	3.44551E+000	3.44553E+000	-3.71247E-004	...........	-327.56
	531	1334.43	3.44551E+000	3.44553E+000	-3.70847E-004	...........	-327.56
	532	1336.94	3.44551E+000	3.44551E+000	-3.66947E-004	...........	-327.56
	533	1339.45	3.44552E+000	3.44552E+000	-3.68860E-004	...........	-327.56
	534	1341.96	3.44552E+000	3.44553E+000	-3.68347E-004	...........	-327.56
	535	1344.47	3.44552E+000	3.44553E+000	-3.68600E-004	...........	-327.56
	536	1346.98	3.44552E+000	3.44551E+000	-3.65567E-004	...........	-327.56
	537	1349.48	3.44552E+000	3.44552E+000	-3.63120E-004	...........	-327.56
	538	1351.99	3.44552E+000	3.44553E+000	-3.68020E-004	...........	-327.56
	539	1354.5	3.44552E+000	3.44553E+000	-3.65327E-004	...........	-327.56
	540	1357.01	3.44552E+000	3.44552E+000	-3.69167E-004	...........	-327.56
	541	1359.52	3.44553E+000	3.44552E+000	-3.71613E-004	...........	-327.56
	542	1362.03	3.44553E+000	3.44551E+000	-3.64173E-004	...........	-327.56
	543	1364.53	3.44552E+000	3.44553E+000	-3.68687E-004	...........	-327.56
	544	1367.04	3.44552E+000	3.44555E+000	-3.70267E-004	...........	-327.56
	545	1369.55	3.44552E+000	3.44552E+000	-3.67260E-004	...........	-327.56
	546	1372.06	3.44553E+000	3.44552E+000	-3.71160E-004	...........	-327.56
	547	1374.57	3.44553E+000	3.44551E+000	-3.67800E-004	...........	-327.56
	548	1377.08	3.44553E+000	3.44551E+000	-3.67860E-004	...........	-327.56
	549	1379.58	3.44552E+000	3.44551E+000	-3.70680E-004	...........	-327.56
	550	1382.09	3.44552E+000	3.44552E+000	-3.68907E-004	...........	-327.56
	551	1384.6	3.44551E+000	3.44553E+000	-3.66867E-004	...........	-327.56
	552	1387.11	3.44551E+000	3.44553E+000	-3.64007E-004	...........	-327.56
	553	1389.62	3.44552E+000	3.44552E+000	-3.65213E-004	...........	-327.56
	554	1392.13	3.44552E+000	3.44551E+000	-3.68167E-004	...........	-327.56
	555	1394.63	3.44552E+000	3.44552E+000	-3.66500E-004	...........	-327.56
	556	1397.14	3.44552E+000	3.44550E+000	-3.68727E-004	...........	-327.56
	557	1399.65	3.44552E+000	3.44551E+000	-3.66447E-004	...........	-327.56
	558	1402.16	3.44551E+000	3.44553E+000	-3.72107E-004	...........	-327.56
	559	1404.67	3.44551E+000	3.44554E+000	-3.73120E-004	...........	-327.56
	560	1407.18	3.44552E+000	3.44552E+000	-3.68467E-004	...........	-327.56
	561	1409.68	3.44552E+000	3.44550E+000	-3.72080E-004	...........	-327.56
	562	1412.19	3.44552E+000	3.44552E+000	-3.73687E-004	...........	-327.56
	563	1414.7	3.44552E+000	3.44553E+000	-3.70413E-004	...........	-327.56
	564	1417.21	3.44552E+000	3.44552E+000	-3.74420E-004	...........	-327.56
	565	1419.72	3.44552E+000	3.44551E+000	-3.73953E-004	...........	-327.56
	566	1422.23	3.44552E+000	3.44552E+000	-3.70500E-004	...........	-327.56
	567	1424.73	3.44552E+000	3.44550E+000	-3.74067E-004	...........	-327.56
	568	1427.24	3.44552E+000	3.44551E+000	-3.69487E-004	...........	-327.56
	569	1429.75	3.44552E+000	3.44552E+000	-3.72320E-004	...........	-327.56
	570	1432.26	3.44551E+000	3.44553E+000	-3.71267E-004	...........	-327.56
	571	1434.77	3.44552E+000	3.44552E+000	-3.74767E-004	...........	-327.56
	572	1437.28	3.44552E+000	3.44551E+000	-3.72787E-004	...........	-327.56
	573	1439.78	3.44552E+000	3.44550E+000	-3.72060E-004	...........	-327.56
	574	1442.29	3.44552E+000	3.44551E+000	-3.74060E-004	...........	-327.56
	575	1444.8	3.44551E+000	3.44551E+000	-3.74260E-004	...........	-327.56
	576	1447.31	3.44551E+000	3.44550E+000	-3.70920E-004	...........	-327.56
	577	1449.82	3.44551E+000	3.44552E+000	-3.73100E-004	...........	-327.56
	578	1452.33	3.44551E+000	3.44552E+000	-3.75200E-004	...........	-327.56
	579	1454.83	3.44551E+000	3.44552E+000	-3.75633E-004	...........	-327.56
	580	1457.34	3.44552E+000	3.44551E+000	-3.76173E-004	...........	-327.56
	581	1459.85	3.44552E+000	3.44554E+000	-3.71253E-004	...........	-327.56
	582	1462.36	3.44552E+000	3.44551E+000	-3.68433E-004	...........	-327.56
	583	1464.87	3.44552E+000	3.44553E+000	-3.71147E-004	...........	-327.56
	584	1467.38	3.44552E+000	3.44552E+000	-3.67413E-004	...........	-327.56
	585	1469.88	3.44552E+000	3.44552E+000	-3.66173E-004	...........	-327.56
	586	1472.39	3.44552E+000	3.44551E+000	-3.68193E-004	...........	-327.56
	587	1474.9	3.44552E+000	3.44552E+000	-3.73647E-004	...........	-327.56
	588	1477.41	3.44552E+000	3.44553E+000	-3.70727E-004	...........	-327.56
	589	1479.92	3.44552E+000	3.44550E+000	-3.60367E-004	...........	-327.56
	590	1482.43	3.44552E+000	3.44551E+000	-3.66113E-004	...........	-327.56
	591	1484.93	3.44552E+000	3.44550E+000	-3.72073E-004	...........	-327.56
	592	1487.44	3.44551E+000	3.44552E+000	-3.69293E-004	...........	-327.56
	593	1489.95	3.44551E+000	3.44551E+000	-3.66067E-004	...........	-327.56
	594	1492.46	3.44551E+000	3.44551E+000	-3.69227E-004	...........	-327.56
	595	1494.97	3.44551E+000	3.44552E+000	-3.66333E-004	...........	-327.56
	596	1497.48	3.44551E+000	3.44552E+000	-3.73167E-004	...........	-327.56
	597	1499.98	3.44552E+000	3.44553E+000	-3.68947E-004	...........	-327.56
	598	1502.49	3.44552E+000	3.44553E+000	-3.72933E-004	...........	-327.56
	599	1505	3.44552E+000	3.44550E+000	-3.69447E-004	...........	-327.56
	600	1507.51	3.44552E+000	3.44554E+000	-3.71307E-004	...........	-327.56
	601	1510.02	3.44552E+000	3.44552E+000	-3.72647E-004	...........	-327.56
	602	1512.53	3.44552E+000	3.44552E+000	-3.70907E-004	...........	-327.56
	603	1515.03	3.44552E+000	3.44550E+000	-3.76900E-004	...........	-327.56
	604	1517.54	3.44552E+000	3.44554E+000	-3.71353E-004	...........	-327.56
	605	1520.05	3.44552E+000	3.44552E+000	-3.67360E-004	...........	-327.56
	606	1522.56	3.44552E+000	3.44550E+000	-3.72280E-004	...........	-327.56
	607	1525.07	3.44552E+000	3.44553E+000	-3.73007E-004	...........	-327.56
	608	1527.58	3.44552E+000	3.44553E+000	-3.73787E-004	...........	-327.56
	609	1530.08	3.44552E+000	3.44552E+000	-3.70940E-004	...........	-327.56
	610	1532.59	3.44552E+000	3.44549E+000	-3.73800E-004	...........	-327.56
	611	1535.1	3.44552E+000	3.44551E+000	-3.73487E-004	...........	-327.56
	612	1537.61	3.44551E+000	3.44550E+000	-3.70873E-004	...........	-327.56
	613	1540.12	3.44551E+000	3.44552E+000	-3.69180E-004	...........	-327.56
	614	1542.63	3.44550E+000	3.44551E+000	-3.74313E-004	...........	-327.56
	615	1545.13	3.44551E+000	3.44553E+000	-3.72307E-004	...........	-327.56
	616	1547.64	3.44551E+000	3.44549E+000	-3.72773E-004	...........	-327.56
	617	1550.15	3.44551E+000	3.44551E+000	-3.72860E-004	...........	-327.56
	618	1552.66	3.44551E+000	3.44551E+000	-3.74267E-004	...........	-327.56
	619	1555.17	3.44551E+000	3.44552E+000	-3.73067E-004	...........	-327.56
	620	1557.68	3.44551E+000	3.44554E+000	-3.72053E-004	...........	-327.56
	621	1560.18	3.44552E+000	3.44553E+000	-3.74393E-004	...........	-327.56
	622	1562.69	3.44552E+000	3.44554E+000	-3.73720E-004	...........	-327.56
	623	1565.2	3.44553E+000	3.44552E+000	-3.70420E-004	...........	-327.56
	624	1567.71	3.44553E+000	3.44550E+000	-3.75180E-004	...........	-327.56
	625	1570.22	3.44553E+000	3.44553E+000	-3.69960E-004	...........	-327.56
	626	1572.73	3.44552E+000	3.44552E+000	-3.71507E-004	...........	-327.56
	627	1575.23	3.44552E+000	3.44551E+000	-3.74067E-004	...........	-327.56
	628	1577.74	3.44552E+000	3.44552E+000	-3.74920E-004	...........	-327.56
	629	1580.25	3.44552E+000	3.44550E+000	-3.69880E-004	...........	-327.56
	630	1582.76	3.44552E+000	3.44551E+000	-3.72300E-004	...........	-327.56
	631	1585.27	3.44551E+000	3.44551E+000	-3.73647E-004	...........	-327.56
	632	1587.78	3.44551E+000	3.44550E+000	-3.74500E-004	...........	-327.56
	633	1590.28	3.44551E+000	3.44551E+000	-3.74347E-004	...........	-327.56
	634	1592.79	3.44551E+000	3.44553E+000	-3.74993E-004	...........	-327.56
	635	1595.3	3.44551E+000	3.44552E+000	-3.71293E-004	...........	-327.56
	636	1597.81	3.44551E+000	3.44551E+000	-3.73907E-004	...........	-327.56
	637	1600.32	3.44552E+000	3.44553E+000	-3.76367E-004	...........	-327.56
	638	1602.83	3.44552E+000	3.44550E+000	-3.71993E-004	...........	-327.56
	639	1605.33	3.44552E+000	3.44551E+000	-3.73953E-004	...........	-327.56
	640	1607.84	3.44552E+000	3.44552E+000	-3.71567E-004	...........	-327.56
	641	1610.35	3.44551E+000	3.44552E+000	-3.72900E-004	...........	-327.56
	642	1612.86	3.44551E+000	3.44552E+000	-3.72600E-004	...........	-327.56
	643	1615.37	3.44551E+000	3.44551E+000	-3.73887E-004	...........	-327.56
	644	1617.88	3.44551E+000	3.44552E+000	-3.71347E-004	...........	-327.56
	645	1620.38	3.44551E+000	3.44552E+000	-3.77053E-004	...........	-327.56
	646	1622.89	3.44551E+000	3.44552E+000	-3.75947E-004	...........	-327.56
	647	1625.4	3.44552E+000	3.44551E+000	-3.72080E-004	...........	-327.56
	648	1627.91	3.44552E+000	3.44551E+000	-3.67760E-004	...........	-327.56
	649	1630.42	3.44552E+000	3.44553E+000	-3.69260E-004	...........	-327.56
	650	1632.93	3.44552E+000	3.44551E+000	-3.74047E-004	...........	-327.56
	651	1635.43	3.44552E+000	3.44552E+000	-3.74467E-004	...........	-327.56
	652	1637.94	3.44552E+000	3.44552E+000	-3.67327E-004	...........	-327.56
	653	1640.45	3.44552E+000	3.44553E+000	-3.70020E-004	...........	-327.56
	654	1642.96	3.44552E+000	3.44551E+000	-3.73333E-004	...........	-327.56
	655	1645.47	3.44552E+000	3.44552E+000	-3.69907E-004	...........	-327.56
	656	1647.98	3.44552E+000	3.44552E+000	-3.72673E-004	...........	-327.56
	657	1650.48	3.44552E+000	3.44552E+000	-3.69153E-004	...........	-327.56
	658	1652.99	3.44552E+000	3.44553E+000	-3.70513E-004	...........	-327.56
	659	1655.5	3.44552E+000	3.44553E+000	-3.69060E-004	...........	-327.56
	660	1658.01	3.44552E+000	3.44552E+000	-3.74780E-004	...........	-327.56
	661	1660.52	3.44552E+000	3.44553E+000	-3.74320E-004	...........	-327.56
	662	1663.03	3.44553E+000	3.44553E+000	-3.75827E-004	...........	-327.56
	663	1665.53	3.44553E+000	3.44553E+000	-3.76320E-004	...........	-327.56
	664	1668.04	3.44553E+000	3.44551E+000	-3.70860E-004	...........	-327.56
	665	1670.55	3.44553E+000	3.44552E+000	-3.72007E-004	...........	-327.56
	666	1673.06	3.44553E+000	3.44552E+000	-3.76227E-004	...........	-327.56
	667	1675.57	3.44552E+000	3.44551E+000	-3.71180E-004	...........	-327.56
	668	1678.08	3.44552E+000	3.44551E+000	-3.72707E-004	...........	-327.56
	669	1680.58	3.44552E+000	3.44554E+000	-3.75980E-004	...........	-327.56
	670	1683.09	3.44552E+000	3.44553E+000	-3.71420E-004	...........	-327.56
	671	1685.6	3.44552E+000	3.44552E+000	-3.71753E-004	...........	-327.56
	672	1688.11	3.44552E+000	3.44552E+000	-3.74453E-004	...........	-327.56
	673	1690.62	3.44553E+000	3.44552E+000	-3.73327E-004	...........	-327.56
	674	1693.13	3.44553E+000	3.44553E+000	-3.74980E-004	...........	-327.56
	675	1695.63	3.44552E+000	3.44551E+000	-3.75387E-004	...........	-327.56
	676	1698.14	3.44552E+000	3.44554E+000	-3.75620E-004	...........	-327.56
	677	1700.65	3.44552E+000	3.44554E+000	-3.72407E-004	...........	-327.56
	678	1703.16	3.44553E+000	3.44553E+000	-3.69633E-004	...........	-327.56
	679	1705.67	3.44553E+000	3.44552E+000	-3.71920E-004	...........	-327.56
	680	1708.18	3.44553E+000	3.44554E+000	-3.68347E-004	...........	-327.56
	681	1710.68	3.44553E+000	3.44550E+000	-3.71087E-004	...........	-327.56
	682	1713.19	3.44553E+000	3.44553E+000	-3.69707E-004	...........	-327.56
	683	1715.7	3.44553E+000	3.44550E+000	-3.70200E-004	...........	-327.56
	684	1718.21	3.44552E+000	3.44551E+000	-3.70627E-004	...........	-327.56
	685	1720.72	3.44552E+000	3.44553E+000	-3.71273E-004	...........	-327.56
	686	1723.23	3.44552E+000	3.44554E+000	-3.68833E-004	...........	-327.56
	687	1725.73	3.44552E+000	3.44552E+000	-3.69767E-004	...........	-327.56
	688	1728.24	3.44552E+000	3.44551E+000	-3.69607E-004	...........	-327.56
	689	1730.75	3.44552E+000	3.44552E+000	-3.71220E-004	...........	-327.56
	690	1733.26	3.44552E+000	3.44552E+000	-3.67933E-004	...........	-327.56
	691	1735.77	3.44552E+000	3.44551E+000	-3.69427E-004	...........	-327.56
	692	1738.28	3.44552E+000	3.44552E+000	-3.72013E-004	...........	-327.56
	693	1740.78	3.44552E+000	3.44553E+000	-3.72893E-004	...........	-327.56
	694	1743.29	3.44552E+000	3.44551E+000	-3.71873E-004	...........	-327.56
	695	1745.8	3.44552E+000	3.44551E+000	-3.75813E-004	...........	-327.56
	696	1748.31	3.44552E+000	3.44552E+000	-3.74880E-004	...........	-327.56
	697	1750.82	3.44552E+000	3.44551E+000	-3.66813E-004	...........	-327.56
	698	1753.33	3.44551E+000	3.44550E+000	-3.68940E-004	...........	-327.56
	699	1755.83	3.44551E+000	3.44551E+000	-3.71913E-004	...........	-327.56
	700	1758.34	3.44551E+000	3.44550E+000	-3.67500E-004	...........	-327.56
	701	1760.85	3.44551E+000	3.44554E+000	-3.68193E-004	...........	-327.56
	702	1763.36	3.44551E+000	3.44554E+000	-3.67847E-004	...........	-327.56
	703	1765.87	3.44551E+000	3.44553E+000	-3.70580E-004	...........	-327.56
	704	1768.38	3.44552E+000	3.44552E+000	-3.70127E-004	...........	-327.56
	705	1770.88	3.44553E+000	3.44552E+000	-3.73747E-004	...........	-327.56
	706	1773.39	3.44553E+000	3.44553E+000	-3.72513E-004	...........	-327.56
	707	1775.9	3.44553E+000	3.44551E+000	-3.74087E-004	...........	-327.56
	708	1778.41	3.44552E+000	3.44551E+000	-3.66087E-004	...........	-327.56
	709	1780.92	3.44552E+000	3.44550E+000	-3.70260E-004	...........	-327.56
	710	1783.43	3.44552E+000	3.44551E+000	-3.72007E-004	...........	-327.56
	711	1785.93	3.44551E+000	3.44554E+000	-3.74080E-004	...........	-327.56
	712	1788.44	3.44551E+000	3.44555E+000	-3.71107E-004	...........	-327.56
	713	1790.95	3.44552E+000	3.44550E+000	-3.72393E-004	...........	-327.56
	714	1793.46	3.44553E+000	3.44552E+000	-3.66993E-004	...........	-327.56
	715	1795.97	3.44553E+000	3.44551E+000	-3.61460E-004	...........	-327.56
	716	1798.48	3.44552E+000	3.44553E+000	-3.70680E-004	...........	-327.56
	717	1800.98	3.44552E+000	3.44551E+000	-3.68973E-004	...........	-327.56
EOC	QUANT	3.44552	Open Circuit (V)
PSTATMODEL	IQUANT	5	Pstat Model
PSTATSECTION	LABEL	REF3000-51199	Pstat Section
PSTATSERIALNO	LABEL	51199	Pstat Serial Number
CTRLMODE	IQUANT	1	Control Mode
ELECTROMETER	IQUANT	0	RE=0 or CS=1
IESTAB	IQUANT	0	I/E Stability
CASPEED	IQUANT	3	Control Amp Speed
CONVENTION	IQUANT	1	Current Convention
ICHRANGE	IQUANT	2	Ich Range
ICHRANGEMODE	TOGGLE	F	Ich Auto Range
ICHOFFSETENABLE	TOGGLE	T	Ich Offset Enable
ICHOFFSET	QUANT	0	Ich Offset (V)
ICHFILTER	IQUANT	3	Ich Filter
VCHRANGE	IQUANT	2	Vch Range
VCHRANGEMODE	TOGGLE	F	Vch Auto Range
VCHOFFSETENABLE	TOGGLE	T	Vch Offset Enable
VCHOFFSET	QUANT	0	Vch Offset (V)
VCHFILTER	IQUANT	3	Vch Filter
ACHRANGE	IQUANT	2	Ach Range
ACHOFFSETENABLE	TOGGLE	F	Ach Offset Enable
ACHOFFSET	QUANT	0	Ach Offset (V)
ACHFILTER	IQUANT	1	Ach Filter
IERANGELOWERLIMIT	IQUANT	2	I/E Range Lower Limit
IERANGEMODE	TOGGLE	F	I/E AutoRange
IERANGE	IQUANT	12	I/E Range
POSFEEDENABLE	TOGGLE	F	Positive Feedback IR Comp
POSFEEDRESISTANCE	QUANT	0	Positive Feedback Resistance (ohm)
ACHSELECT	IQUANT	4	Ach Select
SENSECABLEID	IQUANT	14	Sense Cable ID
PWRCABLEID	IQUANT	7	Power Cable ID
DCCALDATE	LABEL	1/28/2026	DC Calibration Date
ACCALDATE	LABEL	1/28/2026	AC Calibration Date
THERMOSELECT	IQUANT	1	Thermo Select
FRAMEWORKVERSION	LABEL	7.11.0	Framework Version
INSTRUMENTVERSION	LABEL	5.20	Instrument Version
COMMVERSION	LABEL	5.10	Communications Version
CPUPLDVERSION	LABEL	6.00	CPU PLD Version
CTRLPLDVERSION	LABEL	3.21	CTRL PLD Version
PSTATPLDVERSION	LABEL	0.00	PSTAT PLD Version
COMPLIANCEVOLTAGE	IQUANT	0	Compliance Voltage
ZCURVE	TABLE
	Pt	Time	Freq	Zreal	Zimag	Zsig	Zmod	Zphz	ZrealDrCor	ZimagDrCor	ZmodDrCor	ZphzDrCor	Idc	Vdc	IERange	Imod	Vmod	Temp	Ithd	Vthd	IHr1	IHi1	VHr1	VHi1	IHr2	IHi2	VHr2	VHi2	IHr3	IHi3	VHr3	VHi3	IHr4	IHi4	VHr4	VHi4	IHr5	IHi5	VHr5	VHi5	IHr6	IHi6	VHr6	VHi6	IHr7	IHi7	VHr7	VHi7	IHr8	IHi8	VHr8	VHi8	IHr9	IHi9	VHr9	VHi9	IHr10	IHi10	VHr10	VHi10
	#	s	Hz	ohm	ohm	V	ohm	deg	ohm	ohm	ohm	deg	A	V	#	A	V	degC	#	#	A	A	V	V	A	A	V	V	A	A	V	V	A	A	V	V	A	A	V	V	A	A	V	V	A	A	V	V	A	A	V	V	A	A	V	V	A	A	V	V
	0	1	10078.13	0.038225	0.0246257	1	0.0454706	32.79089	0.038225	0.0246257	0.0454706	32.79089	-0.0691574	3.441881	12	0.1929985	0.0087744	-327.5556	0.1316671	0.2215874	12.84654	11.83662	0.203505	0.7676482	0.0638154	-1.605406	0.0799446	-0.0617197	-0.951349	1.177529	-0.124147	-0.0180624	-0.5730177	0.1689327	-0.0417134	-0.0461845	0.1879954	0.1052444	-0.0029521	0.0267422	0.0373281	0.0689266	-0.0074027	0.0088906	0.0154934	-0.0306546	0.0057169	0.0009029	-0.0440592	0.0330177	-0.0087075	-0.0062267	-0.0371553	-0.0044936	-0.0013072	-0.0072184	0.0301558	0.0308683	-0.0050526	0.0084012
	1	3	8015.625	0.0379758	0.0195818	1	0.0427271	27.27731	0.0379758	0.0195818	0.0427271	27.27731	-0.0669517	3.441878	12	0.2971679	0.0126959	-327.5556	0.1063252	0.180862	-25.66332	-8.051078	-0.8201628	-0.8048357	-0.8636212	-0.9151945	0.0013312	-0.0698652	-1.293462	-1.944409	0.059063	-0.153807	0.3001785	0.6932728	-0.0393828	0.052664	0.0928082	0.6517434	-0.0563735	0.0386429	0.0141076	-0.3287711	0.0372031	-0.0140416	0.0544693	-0.1355815	0.0200224	0.00032	-0.0393661	0.0680602	-0.0118827	-0.0021849	-0.0163111	0.0079855	-0.0021274	-0.0022238	-0.0277819	0.0111314	-0.0037391	-0.0041497
	2	5	6328.125	0.03776	0.0152988	1	0.0407415	22.05574	0.03776	0.0152988	0.0407415	22.05574	-0.0658696	3.441846	12	0.2780391	0.011327	-327.5556	0.1087579	0.1651427	-16.00821	-19.41716	-0.3105645	-0.977034	0.5773948	-1.128836	0.0572746	-0.0262818	2.055417	-0.8019731	0.1186382	0.0622704	-0.7001046	-0.2568225	-0.0136789	-0.0527804	-0.216503	-0.5495187	0.0313891	-0.0400605	-0.1003519	0.2858324	-0.0299025	0.0038056	-0.1110142	0.0331491	-0.0085108	-0.0099652	0.0541551	0.0111864	0.001385	0.0068725	-0.0018878	0.011412	-0.0018969	0.0005107	-0.0301608	0.0301294	-0.0059175	-0.0030174
	3	7	5015.625	0.0376497	0.0118913	1	0.039483	17.52816	0.0376497	0.0118913	0.039483	17.52816	-0.0637678	3.441877	12	0.2909977	0.011489	-327.5556	0.1047018	0.1459468	-1.173133	-26.31196	0.2661178	-1.005237	1.121388	0.3211691	0.0353136	0.0398338	-0.1220058	2.259211	-0.0874021	0.0838184	0.7301376	-0.1244296	0.035635	0.0301521	0.179294	0.6344367	-0.0303243	0.0371397	0.2915219	-0.1615957	0.0239186	0.0138544	0.0734586	0.1297315	-0.0074127	0.0117331	0.0486317	-0.0677382	0.0085729	0.0015404	0.0088507	0.0139972	-0.001086	0.0017189	-0.0336144	0.0108153	-0.0028467	-0.0033925
	4	9	3984.375	0.0376117	0.0091426	1	0.038707	13.66237	0.0376117	0.0091426	0.038707	13.66237	-0.0632579	3.441833	12	0.2897562	0.0112153	-327.5556	0.1025664	0.1315191	24.97266	-8.009712	1.012318	-0.0750127	-1.101345	0.1764189	-0.0454228	-0.0146494	1.717664	-1.376238	0.1062675	-0.0028709	0.2752707	-0.6942342	0.0377423	-0.0168653	0.0067765	0.6602934	-0.0312215	0.0272329	0.1766581	0.296266	-0.0096161	0.0222423	-0.1129263	-0.1012325	0.0020959	-0.011724	-0.0981275	-0.0002537	-0.0043287	-0.0073526	0.0177745	0.0011746	0.0006883	0.0015849	-0.0324791	-0.0146919	-0.0001349	-0.0037866
	5	11	3170.956	0.0376425	0.0069127	1	0.038272	10.40596	0.0376425	0.0069127	0.038272	10.40596	-0.0616344	3.441851	12	0.2875037	0.0110032	-327.5556	0.0993993	0.1189941	-23.40366	11.37569	-0.959159	0.2679831	-0.972821	0.3440564	-0.0420633	-0.0018198	-1.100669	1.807553	-0.0840025	0.0433676	-0.1028766	-0.7304119	0.0185096	-0.0316456	-0.4223256	-0.5064807	0.0026557	-0.0362654	0.3524237	0.0649203	0.0111578	0.0187016	0.1519649	-0.0434955	0.0084828	0.0063257	-0.0404847	0.1042241	-0.0079757	0.0018373	-0.0052436	0.0189693	-0.0015681	0.0004246	-0.028207	0.0271361	-0.0032592	-0.0009842
	6	13	2527.573	0.0377376	0.0050816	1	0.0380782	7.66905	0.0377376	0.0050816	0.0380782	7.66905	-0.0604642	3.441856	12	0.2832987	0.0107874	-327.5556	0.095456	0.1080248	0.7298435	-25.63088	0.1565359	-0.963734	0.7047414	0.6274108	0.0190167	0.0319753	-0.965669	1.741113	-0.0686984	0.0480473	0.7006815	0.1976163	0.0220391	0.0247674	-0.1140823	0.6406498	-0.0241418	0.0215354	0.3710757	-0.0194831	0.015346	0.0127419	0.0100838	0.1620331	-0.006516	0.0069015	0.1105259	-0.0627297	0.0075443	0.0028273	0.004814	0.0219441	-0.0010519	0.0011344	-0.0180466	-0.040613	0.0016183	-0.0029263
	7	14	1976.103	0.037889	0.0034492	1	0.0380457	5.201486	0.037889	0.0034492	0.0380457	5.201486	-0.0597331	3.441842	12	0.2799764	0.0106518	-327.5556	0.0896746	0.0967733	-13.79976	21.25351	-0.5953932	0.7582762	-0.2997045	0.7847133	-0.0182307	0.0266922	1.416975	1.152006	0.036773	0.0635781	-0.5945987	0.3949772	-0.0300512	0.0036347	0.1060201	0.6300155	-0.0111114	0.0267458	-0.3860884	-0.0536798	-0.013509	-0.013192	-0.1008832	0.1350904	-0.0084519	0.0018394	-0.1083861	-0.1019012	-0.0003514	-0.0081522	-0.0253176	-5.33946E-005	-0.0010433	-0.0010836	-0.0407493	-0.0277729	-0.0003591	-0.0031555
	8	16	1577.524	0.0380907	0.0022027	1	0.0381543	3.309595	0.0380907	0.0022027	0.0381543	3.309595	-0.05852	3.441849	12	0.2740015	0.0104543	-327.5556	0.0835157	0.087249	-23.83219	6.85975	-0.9227219	0.2095442	-0.6972766	-0.2491162	-0.024539	-0.014134	-1.603642	0.3417585	-0.0639248	-0.0051732	0.4865627	-0.4717941	0.0256727	-0.0105234	0.205065	-0.5757136	0.0187304	-0.0179405	0.087345	0.3899547	-0.0055914	0.0168304	0.0956851	0.1404716	-8.153916E-005	0.0079126	-0.1606813	-0.0412423	-0.0050122	-0.0065529	-0.0268982	-0.0033422	-0.0009277	-0.0011345	0.0077196	-0.0574979	0.0025218	-0.0020604
	9	18	1265.625	0.0383294	0.0011855	1	0.0383477	1.771566	0.0383294	0.0011855	0.0383477	1.771566	-0.0572865	3.441867	12	0.27033	0.0103665	-327.5556	0.0758228	0.0773782	0.3021723	-24.46561	0.0399771	-0.9374171	0.3081615	0.5287912	0.009033	0.021436	-1.00787	1.033978	-0.0467436	0.0300238	0.5582307	0.307997	0.0173783	0.0181134	-0.1948075	0.5522031	-0.0159202	0.0179962	0.4031499	0.0286288	0.0148446	0.0085492	0.0072248	0.1747304	-0.0035088	0.0068269	0.1659378	-0.0772248	0.0083027	0.0011921	0.011411	0.0298106	-0.0002923	0.0013967	0.0136233	-0.0651786	0.0025485	-0.0021968
	10	20	998.264	0.0386211	0.0002555	1	0.0386219	0.3790765	0.0386211	0.0002555	0.0386219	0.3790765	-0.0572967	3.441826	12	0.2658566	0.0102679	-327.5556	0.0675503	0.0674326	-10.26592	21.76279	-0.4016118	0.838084	-0.1935863	0.4626225	-0.0088775	0.0169716	1.019409	0.699363	0.0337765	0.0327896	-0.4134271	0.4067829	-0.0192701	0.0115807	0.2752445	0.4617831	0.0047667	0.0204544	-0.3751155	0.141753	-0.0160766	4.601479E-005	0.0137543	0.1684314	-0.0025018	0.0065708	-0.2002484	0.0004579	-0.0077004	-0.0040361	-0.0167711	0.0276372	-0.0012891	0.0006161	-0.0794402	-0.0053165	-0.0028969	-0.001987
	11	22	796.875	0.0389552	-0.0005065	1	0.0389585	-0.7449055	0.0389552	-0.0005065	0.0389585	-0.7449055	-0.0555719	3.44188	12	0.2613559	0.010182	-327.5556	0.0593486	0.0585173	-17.72645	-15.66344	-0.6987163	-0.6009079	0.3471338	-0.2150645	0.0137067	-0.0073733	1.043455	-0.0148939	0.039412	0.0044124	-0.443424	-0.231416	-0.0153668	-0.0118665	-0.2617906	-0.4165932	-0.0059956	-0.0180576	0.0359013	0.3745508	-0.0028853	0.0145535	-0.0812248	0.153973	-0.0051076	0.0046862	0.1561515	-0.1342685	0.0079412	-0.0027001	0.0336168	0.0005235	0.001266	0.0005679	-0.0864385	-0.0039337	-0.0031583	-0.0019469
	12	23	627.7902	0.0393551	-0.0011975	1	0.0393733	-1.742902	0.0393551	-0.0011975	0.0393733	-1.742902	-0.0553626	3.441858	12	0.2577359	0.0101479	-327.5556	0.050908	0.0495165	-8.466137	21.73709	-0.3068755	0.8657014	-0.1218803	0.3101251	-0.0050623	0.0116882	0.7054521	0.4835101	0.0250728	0.0206656	-0.2986587	0.3076913	-0.0128973	0.0103586	0.2444233	0.3532658	0.006825	0.0149413	-0.3072198	0.1597052	-0.0130539	0.0033462	0.0415972	0.1544926	-2.861023E-005	0.0062568	-0.2053721	0.0348338	-0.0082233	-0.0011066	-0.0056058	0.0333811	-0.0006654	0.0011196	-0.0966944	0.0060113	-0.0037409	-0.0013151
	13	25	505.5147	0.03977	-0.0017525	1	0.0398086	-2.523109	0.03977	-0.0017525	0.0398086	-2.523109	-0.0554493	3.441822	12	0.2537066	0.0100997	-327.5556	0.0438592	0.0421676	-22.80302	-2.705028	-0.9116338	-0.0673808	-0.0208375	-0.2772821	-0.0006266	-0.0106721	-0.0538795	-0.7031331	-0.0004729	-0.0269103	0.0517093	0.3649687	0.0007505	0.0140617	0.0624443	0.361686	0.0005634	0.0139757	-0.0852481	-0.3019683	-0.0011919	-0.012083	-0.0446936	-0.1345313	-0.0006828	-0.0054255	0.0861919	0.1799547	0.0016978	0.0074353	0.0094357	0.0292567	5.960464E-007	0.0012648	-0.0668577	-0.0730201	-0.0016484	-0.0036609
	14	27	397.9953	0.0402701	-0.002286	1	0.0403349	-3.248975	0.0402701	-0.002286	0.0403349	-3.248975	-0.05452	3.441841	12	0.2497248	0.0100726	-327.5556	0.0367043	0.0348515	-15.86098	16.10288	-0.6017719	0.6848447	-0.2127628	0.061286	-0.0081594	0.0024455	-0.2310385	0.5222297	-0.0094621	0.0195916	-0.1500677	-0.2563764	-0.0052086	-0.0102918	-0.3040101	-0.0354899	-0.011441	-0.002517	0.173448	-0.2067804	0.0074856	-0.0071254	-0.0281578	-0.1222106	-0.0003824	-0.0047544	0.1712161	0.058385	0.0060856	0.0033175	0.0252092	-0.0150513	0.0009513	-0.0004606	0.0156816	0.0937709	-0.0002879	0.0038121
	15	28	315.5048	0.0408188	-0.0027354	1	0.0409104	-3.833809	0.0408188	-0.0027354	0.0409104	-3.833809	-0.0537045	3.441852	12	0.2456744	0.0100506	-327.5556	0.0304577	0.0285971	-22.23282	-0.3710011	-0.9085244	0.0458184	-0.032139	-0.1720184	-0.00142	-0.0067313	-0.0987845	-0.444162	-0.003754	-0.0171666	0.0821183	0.2301642	0.0029492	0.0088739	0.107266	0.2290331	0.0033635	0.0090389	-0.1258882	-0.1901532	-0.0041908	-0.0075853	-0.0690907	-0.0831228	-0.0023088	-0.0033216	0.1213066	0.1019577	0.0039895	0.0044671	0.0203232	0.0143132	0.0007141	0.0007198	-0.0849387	-0.0264628	-0.0030448	-0.0015916
	16	30	252.4038	0.0413841	-0.0031123	1	0.0415009	-4.300796	0.0413841	-0.0031123	0.0415009	-4.300796	-0.0533387	3.441844	12	0.2416316	0.0100279	-327.5556	0.0252519	0.0234858	15.73402	15.19005	0.6984882	0.5795671	0.1374302	-0.0323083	0.0055232	-0.001452	-0.3184352	-0.180667	-0.012357	-0.0070231	-0.0781675	-0.1822363	-0.00296	-0.0070486	-0.0591652	0.1989095	-0.0026188	0.0074575	-0.1468581	0.1178734	-0.0058159	0.0043113	0.088682	-0.0015491	0.0032878	0.0003037	0.1137851	0.0769324	0.0039661	0.0032406	-0.0073374	-0.0170954	-0.0002825	-0.000789	0.0165483	-0.0762743	0.0009713	-0.0027646
	17	32	198.6229	0.0420431	-0.003453	1	0.0421847	-4.695111	0.0420431	-0.003453	0.0421847	-4.695111	-0.0531612	3.441826	12	0.2374185	0.0100154	-327.5556	0.0203392	0.0188308	19.19059	9.66873	0.8402522	0.3401533	0.0765463	-0.0816145	0.0030086	-0.0034171	-0.2710064	0.0887488	-0.0105796	0.0036418	-0.1602806	-0.0059928	-0.0062021	-0.0002623	0.147756	0.0700396	0.0057098	0.0027139	0.1094695	0.1046237	0.0041462	0.0041332	-0.0294767	-0.0631623	-0.0011329	-0.0026226	-0.0106057	-0.1114398	-0.0002166	-0.0042908	-0.0034568	0.0142584	-0.0002611	0.0005763	-0.0316379	0.0564307	-0.0014277	0.0019052
	18	33	158.3615	0.0427129	-0.0037171	1	0.0428744	-4.973676	0.0427129	-0.0037171	0.0428744	-4.973676	-0.0524146	3.441839	12	0.2334151	0.0100075	-327.5556	0.0165345	0.0151923	-11.30835	-17.84497	-0.5494035	-0.7201317	0.0853234	0.0228082	0.0034597	0.0009335	0.0493066	0.2197815	0.0022874	0.0087931	0.0821577	-0.098069	0.0031331	-0.0039473	0.1331422	0.0083239	0.0050193	0.0003347	-0.0702931	-0.0986509	-0.0027671	-0.0038571	0.0185837	-0.0541561	0.0008371	-0.0021744	-0.0840396	0.0329576	-0.003224	0.0011382	-0.0110964	-0.0065912	-0.0003715	-0.0001426	0.008258	0.0546455	0.0001736	0.0018506
	19	35	125.558	0.0434319	-0.0039122	1	0.0436077	-5.147115	0.0434319	-0.0039122	0.0436077	-5.147115	-0.0512739	3.44187	12	0.2293471	0.0100013	-327.5556	0.0132063	0.0119661	1.781062	20.68158	0.1583226	0.8912614	0.0226634	0.0650014	0.0010521	0.0027211	0.1666546	-0.0550243	0.0065322	-0.0023953	0.0472309	0.0893045	0.0019891	0.0035766	0.0842088	-0.0615159	0.0032387	-0.0024543	0.0670088	0.0681168	0.002712	0.0025632	0.0252862	-0.0385298	0.000972	-0.0014772	0.0655162	0.03137	0.0023892	0.0012388	0.0025968	-0.0099198	4.62532E-005	-0.0003433	0.0434573	0.0023696	0.0016338	0.0002582
	20	36	100.4464	0.0441647	-0.0040388	1	0.044349	-5.22505	0.0441647	-0.0040388	0.044349	-5.22505	-0.0513631	3.441837	12	0.2254998	0.0100007	-327.5556	0.0107113	0.0097619	-16.49871	-12.01488	-0.7772091	-0.4639586	0.0496485	-0.0266402	0.0021183	-0.0011238	0.1346008	0.0407566	0.005481	0.0013593	-0.052718	-0.0602516	-0.0022776	-0.0023799	-0.0082177	-0.0826389	-0.0005929	-0.0033104	-0.0325033	0.0674349	-0.0011718	0.0027683	-0.0304158	0.0181117	-0.0011328	0.0007582	0.0583244	-0.001514	0.0023292	-0.0002358	0.005682	0.005664	0.0002613	0.0001099	-0.0174256	-0.0300843	-0.0006165	-0.0011992
	21	38	79.00281	0.044958	-0.0040933	1	0.0451439	-5.202243	0.044958	-0.0040933	0.0451439	-5.202243	-0.0513692	3.441813	12	0.2212092	0.0099862	-327.5556	0.0083954	0.0075534	6.289142	-19.00815	0.2049058	-0.8803191	-0.0205745	0.0397792	-0.0008073	0.0017651	-0.0603396	-0.0878141	-0.0025754	-0.0034695	-0.0586225	0.0230308	-0.0023093	0.0010629	-0.0036813	-0.0640207	-0.0001462	-0.0025487	-0.0584706	-0.0106269	-0.0023625	-0.0001886	0.0117722	-0.0222183	0.0004939	-0.0009005	-0.0326228	-0.0298055	-0.001369	-0.0012012	0.002528	-0.0002019	0.0001331	-0.0001166	-0.0076483	-0.0252011	-0.0002753	-0.0010476
	22	40	63.3446	0.0457059	-0.0040575	1	0.0458856	-5.073098	0.0457059	-0.0040575	0.0458856	-5.073098	-0.050195	3.441851	12	0.2177419	0.0099912	-327.5556	0.0068966	0.0062326	0.6987798	-19.69536	-0.0480051	-0.9030269	0.0059165	0.0369241	0.0002546	0.0016987	-0.0858482	-0.0114631	-0.0036707	-0.0002477	-0.0055003	0.0505626	-7.152558E-006	0.0020424	-0.0516785	-0.0043431	-0.002044	-0.0002158	-0.0064639	0.0462112	-0.0002661	0.0018501	-0.0197426	-0.0012521	-0.0008087	-1.263619E-005	-0.0018953	0.0361819	-5.722047E-006	0.0014441	-0.005358	0.0001908	-0.0002941	1.430512E-006	-0.0027072	0.0194862	-0.0000992	0.0007448
	23	42	49.86702	0.046476	-0.0039367	1	0.0466425	-4.84161	0.046476	-0.0039367	0.0466425	-4.84161	-0.0494564	3.441858	12	0.2137218	0.009969	-327.5556	0.0053708	0.0047952	12.13482	15.06426	0.6233559	0.6523519	0.0281341	0.0006535	0.0012202	4.565716E-005	-0.0287067	-0.0600095	-0.0013902	-0.0024891	0.016015	-0.0359892	0.00055	-0.0015261	-0.0376614	0.0142195	-0.0014884	0.0006354	-0.028298	-0.019133	-0.0012264	-0.0007098	0.00193	0.0148506	0.000108	0.0005898	-0.0188752	0.0202588	-0.0006708	0.0008237	0.0013442	0.001603	0.0001277	4.482269E-005	0.0104356	0.0115335	0.0004337	0.0003846
	24	44	39.72458	0.0471759	-0.0037293	1	0.0473231	-4.519845	0.0471759	-0.0037293	0.0473231	-4.519845	-0.0490371	3.441864	12	0.2099349	0.0099351	-327.5556	0.0041731	0.003783	-17.10766	-8.268696	-0.8379506	-0.3262547	0.0116322	-0.0201901	0.0005555	-0.0007606	0.049359	-0.0090069	0.0021763	-0.0005772	-0.0289071	-0.0057749	-0.0012336	-0.0001613	-0.0246222	-0.013166	-0.0010469	-0.0005445	0.0116057	0.0270889	0.0005898	0.0011064	-0.0001274	0.0107094	7.271767E-005	0.0004607	0.0078706	-0.0202964	0.0001969	-0.0008184	0.0015922	-0.0011881	5.483627E-005	-7.569791E-005	-0.0098812	0.0044462	-0.0003619	0.0001935
	25	46	31.6723	0.0478293	-0.0034689	1	0.0479549	-4.148156	0.0478293	-0.0034689	0.0479549	-4.148156	-0.0486877	3.441856	12	0.2054597	0.009853	-327.5556	0.0032579	0.002972	18.58573	0.6205983	0.8911126	-0.0348224	-0.0062276	-0.017532	-0.0002127	-0.0008107	-0.006184	0.0390681	-8.344651E-005	0.0017592	-0.0034498	0.0222955	-7.987023E-005	0.0009824	0.0008025	-0.0192431	-5.483628E-006	-0.0008346	0.0055359	-0.022086	0.0001259	-0.0009485	-0.0023092	0.0086291	-0.0001094	0.0003853	-0.0036847	0.0145694	-0.0000997	0.0005922	0.0002254	-0.0012772	-8.821488E-006	-4.076959E-005	0.0010152	-0.007277	-5.483628E-006	-0.0003376
	26	48	24.93351	0.0484073	-0.0031399	1	0.0485091	-3.711276	0.0484073	-0.0031399	0.0485091	-3.711276	-0.0491756	3.441808	12	0.1986526	0.0096366	-327.5556	0.0025956	0.0023829	9.74847	15.10784	0.5193624	0.7007151	0.0170147	-0.0019561	0.0007334	-3.138185E-005	-0.0051407	-0.0305063	-0.0003877	-0.0013354	0.0131573	-0.0118901	0.0005693	-0.0005785	-0.0105385	-0.0043339	-0.0005076	-0.0001449	-0.0042373	-0.0173899	-0.000283	-0.0007157	-0.0040526	0.0022251	-0.0001342	0.0000969	-0.0108047	-0.001823	-0.0004864	-7.55787E-005	0.000393	-0.0011964	-5.626679E-005	-0.0001072	-0.0021707	0.0038967	-0.0001333	0.0001229
	27	49	19.86229	0.0488472	-0.0028083	1	0.0489279	-3.290365	0.0488472	-0.0028083	0.0489279	-3.290365	-0.0470301	3.441909	12	0.2205983	0.0107935	-327.5556	0.0019671	0.0018369	0.976408	-19.94239	-0.008332	-0.97688	0.0054946	0.0101246	0.0001011	0.0004698	-0.0252404	-0.0023468	-0.0012043	-0.0001224	-0.004035	0.012129	-0.0001316	0.0005311	-0.0139662	-0.0049396	-0.0006263	-0.0002249	-0.0034801	0.0127607	-0.0001752	0.0005896	-0.0069324	-0.0048433	-0.0003469	-0.0002081	-0.0019367	0.0083509	-9.417535E-005	0.0003991	-0.0013064	0.0009464	-9.059907E-005	0.0001537	-0.0036024	0.0069993	-6.818772E-005	0.0001881
	28	51	15.83615	0.049248	-0.0024875	1	0.0493107	-2.89148	0.049248	-0.0024875	0.0493107	-2.89148	-0.0471981	3.441892	12	0.2025584	0.0099884	-327.5556	0.0021631	0.0020139	0.8931168	-18.31173	-0.0015819	-0.9040419	0.0066825	0.0213572	0.0001152	0.0009476	-0.0198334	0.0008221	-0.0009387	0.0001354	-0.0030634	0.0158073	-8.320809E-005	0.0007839	-0.0111714	0.000474	-0.0005746	1.633167E-005	-0.0028345	0.0124356	-0.0001068	0.0005858	-0.0027779	0.0022648	-0.0001316	-5.960465E-006	-0.003613	0.0084603	-0.0001831	0.0003315	-0.0008351	0.001203	-7.724763E-005	6.508827E-005	-0.0034797	0.004378	-0.0001094	0.0001212
	29	53	12.40079	0.0495704	-0.0021421	1	0.0496166	-2.47436	0.0495704	-0.0021421	0.0496166	-2.47436	-0.0468248	3.441891	12	0.2015485	0.0100002	-327.5556	0.0016789	0.0015242	0.859933	-18.22181	0.003582	-0.9051074	0.0061097	0.0147825	0.0001583	0.0006397	-0.0142697	0.0035516	-0.0006402	0.0002453	-0.0021506	0.012971	-8.416177E-005	0.0006006	-0.0078598	0.0013621	-0.0003419	4.786253E-005	-0.0020451	0.0110137	-2.574921E-005	0.0005287	-0.0032101	0.0024025	-0.0001612	0.0001247	-0.0020698	0.0072494	-4.100801E-005	0.0003828	-0.0018742	0.0026329	-0.0000987	6.759167E-005	-0.0012297	0.00436	-5.221368E-005	0.000158
	30	54	9.93114	0.0498033	-0.0018585	1	0.049838	-2.137147	0.0498033	-0.0018585	0.049838	-2.137147	-0.0457595	3.441935	12	0.2010458	0.0100197	-327.5556	0.0010298	0.0009344	0.8225888	-18.17799	0.0071728	-0.9068553	0.0079213	-0.0021895	0.000242	-0.000192	-0.010846	-0.0066476	-0.0004821	-0.0003319	-0.0003087	0.0027037	-6.437303E-006	6.437302E-005	-0.0057539	-0.005503	-0.0002618	-0.0003225	-0.0021812	0.0037012	-8.440019E-005	0.0001304	-0.0022815	-0.0040295	-0.0001082	-0.0002211	-0.0017224	0.0019737	-2.479553E-005	7.784367E-005	5.250797E-005	-0.0017076	1.454353E-005	-0.0000999	-0.0009589	0.0006051	5.960464E-006	-4.243852E-005
	31	56	7.944915	0.0499894	-0.0016096	1	0.0500153	-1.844211	0.0499894	-0.0016096	0.0500153	-1.844211	-0.0457372	3.441929	12	0.1999113	0.0099986	-327.5556	0.0008505	0.0007837	0.7913162	-18.07659	0.0104532	-0.9049125	0.008782	-0.0010572	0.0002785	-0.0001826	-0.0080251	-0.0064512	-0.0003531	-0.0003138	-0.0009758	0.0020022	-2.384186E-006	5.424023E-005	-0.0031523	-0.0027397	-0.0002158	-0.0001768	-0.0010401	0.0033261	-6.341935E-005	0.0001481	-0.0015197	-0.0027729	-0.0001175	-0.0002016	-0.0005339	0.0024544	-1.597405E-005	5.00679E-005	-0.00036	-0.0012133	-3.337861E-005	-2.82526E-005	-0.0001746	0.0002675	-5.197526E-005	-2.086163E-005
	32	58	6.317385	0.0501335	-0.0013893	1	0.0501528	-1.58732	0.0501313	-0.0013889	0.0501506	-1.586972	-0.0461498	3.441884	12	0.1991773	0.0099893	-327.5556	0.0008163	0.000634	0.7605938	-18.01142	0.0131023	-0.9040339	0.0091267	0.005934	0.000284	0.0001949	-0.0057872	-0.0001106	-0.0002978	-1.233816E-005	-0.0010843	0.0049278	-6.91414E-006	0.0002013	-0.0028259	-5.883445E-005	-0.0001552	-2.753735E-005	-0.0009084	0.0038852	-3.600122E-005	0.0001832	-0.0015243	0.0009451	-5.50747E-005	-5.960465E-007	-0.0002246	0.0024697	-8.821488E-006	0.0000972	8.339435E-005	-0.000528	-1.168251E-005	-3.361703E-005	-0.0004271	0.0023108	-5.054475E-005	6.711483E-005
	33	60	5.008013	0.0502542	-0.0012064	1	0.0502687	-1.375185	0.0502508	-0.0012067	0.0502653	-1.375642	-0.0452185	3.441917	12	0.1990131	0.0100041	-327.5556	0.0006503	0.0005278	0.7217203	-17.99815	0.0145512	-0.9053536	0.0081158	0.0003011	0.0001867	-1.037121E-005	-0.0052049	-0.0030166	-0.0002902	-0.0001568	-0.0003716	0.0016239	3.385544E-005	5.668402E-005	-0.0028645	-0.0026513	-0.0001297	-0.0001494	-0.0007037	0.0018073	-1.430512E-006	7.104874E-005	-0.000811	-0.0024579	-3.290177E-005	-0.0001205	-0.0010105	0.0007379	-3.242494E-005	3.182888E-005	0.0001799	-0.0022107	-2.360344E-005	-0.0001312	7.743761E-005	0.0002834	1.192093E-005	-2.205372E-005
	34	63	3.945707	0.0503577	-0.001054	1	0.0503688	-1.199014	0.0503508	-0.0010536	0.0503618	-1.19872	-0.0450885	3.441902	12	0.198434	0.0099949	-327.5556	0.0006762	0.0005338	0.6891975	-17.94697	0.0157866	-0.9044958	0.0093361	0.002915	0.0003283	9.119511E-005	-0.0050502	-0.0015693	-0.0002437	-8.291007E-005	-0.0004489	0.0021319	-1.907349E-005	8.356571E-005	-0.0022907	-0.0013412	-0.0000992	-8.243323E-005	-0.0010834	0.002379	-3.433229E-005	0.0001221	-0.0012798	0.0002033	-7.343293E-005	-1.40667E-005	-0.000405	0.0016426	-7.152558E-006	6.496906E-005	8.703023E-005	-0.0003782	7.152557E-006	-2.241135E-005	-0.0002342	0.0007138	-1.931191E-005	-4.410745E-006
	35	66	3.158693	0.0504328	-0.0009425	1	0.0504416	-1.070645	0.0504261	-0.0009412	0.0504348	-1.069298	-0.0446676	3.441903	12	0.1983695	0.0100061	-327.5556	0.0005876	0.0004098	0.6715338	-17.9418	0.0169537	-0.9054889	0.0084537	0.0018009	0.0002575	2.387166E-005	-0.0035157	0.0017665	-0.0001471	9.286404E-005	-0.0003945	0.0021477	-8.821488E-006	9.280443E-005	-0.0017087	0.000129	-8.225442E-005	-4.369021E-005	-4.229696E-005	0.0023829	4.529953E-006	0.0000989	-0.0004664	0.000917	-1.692772E-005	-3.57628E-006	-0.0006314	0.0018997	2.503395E-005	8.177757E-005	-0.0005386	0.001191	-2.956391E-005	6.818771E-005	0.0001914	0.0009665	-1.001358E-005	-1.478195E-005
	36	70	2.504006	0.0504958	-0.0008543	1	0.050503	-0.9692	0.05049	-0.0008544	0.0504972	-0.969469	-0.0440586	3.441914	12	0.1980346	0.0100013	-327.5556	0.0007112	0.0004955	0.6730648	-17.9114	0.0186834	-0.9050252	0.0110605	0.0035264	0.0003202	0.000114	-0.0041304	-0.0013738	-0.0002022	-0.0001331	6.210059E-005	0.0014076	-1.978874E-005	6.455183E-005	-0.0007863	-0.0001314	-1.096726E-005	-7.033349E-005	-0.0002122	0.0019065	9.059906E-006	0.000114	-0.0005048	-0.000316	-1.454353E-005	-4.172326E-005	-0.0008096	0.0009797	-2.217293E-005	1.597405E-005	-0.0003437	-0.000331	-2.956391E-005	-1.895428E-005	-0.0002619	0.0004737	-9.059907E-006	-1.823902E-005
	37	73	1.998082	0.0505576	-0.0007934	1	0.0505638	-0.8990357	0.0505493	-0.0007945	0.0505556	-0.9004359	-0.0435824	3.441915	12	0.1977047	0.0099967	-327.5556	0.0006175	0.0007573	0.6425189	-17.88265	0.0182946	-0.9046141	-0.008193	-0.0036907	-0.0005736	-0.0002698	0.0019046	-0.0003587	6.318092E-005	-8.064509E-005	0.0002473	0.0018597	2.622604E-005	7.098913E-005	-0.0022454	0.0024857	-9.274484E-005	0.000106	-0.0004852	0.0030382	4.529953E-006	0.0001134	-0.000316	0.0017517	-1.28746E-005	5.042553E-005	-0.0004783	0.0022454	-3.933908E-005	0.0000989	-0.0005703	0.0007603	-3.123283E-005	3.421307E-005	-0.0013809	0.00146	-2.336502E-005	4.398823E-005
	38	77	1.584686	0.0506129	-0.0007603	1	0.0506187	-0.8606234	0.0506067	-0.0007602	0.0506124	-0.8606527	-0.0431223	3.441902	12	0.197538	0.0099991	-327.5556	0.0009546	0.0010364	0.6682596	-17.86661	0.020237	-0.9047898	-0.0127398	0.0097923	-0.0007961	0.000425	-0.000341	0.0049248	-1.859665E-005	0.0002069	-0.0013072	0.0012585	-4.315377E-005	2.717972E-005	-0.0017883	-0.000205	-0.0001028	-4.929305E-005	-0.0004413	0.0003506	1.66893E-005	2.145767E-005	-0.0008602	-0.0002231	-3.623963E-005	-2.69413E-005	-0.0003322	0.000883	-1.525879E-005	2.729893E-005	-3.613533E-005	-0.0001791	-1.859665E-005	-2.789498E-005	-0.000377	0.0001841	-2.455712E-005	-3.45707E-005
	39	84	1.266892	0.0506706	-0.0007457	1	0.0506761	-0.843103	0.0506605	-0.0007466	0.050666	-0.8443046	-0.0424771	3.4419	12	0.1975956	0.0100134	-327.5556	0.0013034	0.0010959	0.6626816	-17.87203	0.0202506	-0.9060809	0.0089868	0.0179374	0.0003049	0.0007667	-0.0094502	0.0034251	-0.0004644	0.0001107	-0.0031409	0.0018001	-0.0001659	6.896257E-005	0.0010771	0.0013258	5.674362E-005	3.153086E-005	-0.0006649	0.0044159	1.0252E-005	0.000187	-0.0006748	0.0005082	-1.168251E-005	-1.215935E-005	-0.0004875	0.0012184	-2.479553E-005	5.495548E-005	-0.0003693	0.0006609	-4.529954E-005	-3.695489E-006	-0.00033	0.0008476	-1.311302E-005	-7.510186E-006
	40	91	0.999041	0.0507328	-0.0007557	1	0.0507384	-0.8533635	0.0507209	-0.0007559	0.0507265	-0.8537794	-0.0417872	3.441907	12	0.1967784	0.0099842	-327.5556	0.0014155	0.0012185	0.6750911	-17.79755	0.0207992	-0.9034298	0.0157869	0.0140984	0.0006564	0.0005243	-0.0023235	0.0084238	-0.0001078	0.0003648	0.0039032	-0.0039579	0.0002184	-0.0002729	-0.0018369	-0.0081796	-7.462503E-005	-0.0004596	-0.0019548	0.0010233	-5.745889E-005	2.652407E-005	0.000919	-0.0012357	5.483627E-005	-0.0001019	-0.0008143	0.0010119	-1.716614E-005	1.442432E-005	0.0002884	-0.0008463	2.408028E-005	-4.899503E-005	0.0005267	-0.0002427	1.263619E-005	-4.673005E-005
	41	97	0.7923428	0.0507984	-0.0007871	1	0.0508045	-0.8876983	0.0507862	-0.0007848	0.0507922	-0.8853437	-0.0411967	3.441911	12	0.1972866	0.010023	-327.5556	0.0018752	0.0016976	0.6736523	-17.84364	0.020175	-0.9069581	0.0315484	0.0014215	0.0014079	-0.0001115	0.0044607	0.0059276	0.0002382	0.0002015	0.0054235	0.001409	0.0003161	-4.702807E-005	0.0016472	-0.000812	0.0001285	-0.0001575	-0.0021496	-0.0037107	-7.987023E-005	-0.0002429	0.0023891	-0.0012579	0.0001218	-0.0001384	-0.0005744	0.0004808	1.931191E-005	-7.748605E-006	-0.0012887	-0.0021418	-8.726121E-005	-8.487702E-005	-0.0004887	-0.001139	-5.722047E-005	-0.0001355
	42	103	0.6334459	0.0508653	-0.0008406	1	0.0508722	-0.9468257	0.0508504	-0.0008412	0.0508573	-0.9476854	-0.040867	3.441892	12	0.1961987	0.0099811	-327.5556	0.0008942	0.0009861	0.6887074	-17.74452	0.0201139	-0.9031586	0.0102689	-0.0096134	0.0004332	-0.000643	-0.0027334	-0.0032179	-0.0001702	-0.0002536	-0.0012433	0.0020385	-6.413461E-005	1.090765E-005	-0.001188	-3.175997E-005	-9.036065E-005	-6.258489E-005	0.0028267	0.0035506	0.0001729	0.0001395	0.0001293	-3.89591E-005	3.385544E-005	-6.496907E-005	-0.0005914	0.0018096	-6.437303E-006	8.547306E-005	0.000526	-0.0016031	1.096726E-005	-9.334088E-005	-0.0014476	-0.0003901	-8.082391E-005	-7.355214E-005
	43	113	0.5040323	0.0509483	-0.0009146	1	0.0509565	-1.028448	0.0509293	-0.0009143	0.0509376	-1.028512	-0.0401794	3.441899	12	0.1960275	0.0099889	-327.5556	0.0025137	0.0023913	0.7449891	-17.72674	0.0217423	-0.9038281	0.0121362	0.0016143	0.0004687	-0.000175	-0.0251169	0.0177825	-0.0012326	0.0007946	0.0240302	0.0012298	0.0012445	-5.459786E-005	-0.0019848	0.0144088	-9.083749E-005	0.0006393	-0.00147	0.002639	-4.291535E-005	6.878376E-005	-0.000692	-0.0024617	-1.525879E-005	-0.0001886	0.006333	-0.0028535	0.0003374	-0.0002015	-0.0021957	-0.005088	-0.0001371	-0.000286	-0.0009687	0.0024649	-5.340577E-005	6.258488E-005
	44	122	0.400641	0.0510395	-0.0010066	1	0.0510494	-1.129831	0.0510169	-0.0010027	0.0510268	-1.125969	-0.0395399	3.441892	12	0.1960326	0.0100074	-327.5556	0.0017598	0.0015323	0.7747453	-17.72592	0.0216994	-0.9055022	0.0020281	0.0184445	-4.172326E-005	0.0006837	-0.0067013	0.0104907	-0.0002828	0.000412	-0.0070256	0.0038099	-0.0003622	5.39422E-005	-0.0015493	-0.0091655	-5.078317E-005	-0.0005603	0.0032586	0.0010708	0.0001898	-4.100801E-005	0.0081042	0.0135679	0.0004523	0.0006242	-0.0043252	0.0054805	-0.0001714	0.0002598	-0.0002428	-0.0021416	-3.57628E-005	-0.0001447	-0.0008298	0.0031304	-2.980232E-005	7.021427E-005
	45	134	0.316723	0.0511433	-0.0011209	1	0.0511556	-1.255494	0.0511224	-0.0011191	0.0511346	-1.254083	-0.0386322	3.441907	12	0.1954665	0.0099992	-327.5556	0.0022231	0.0022199	0.7961479	-17.67369	0.0209076	-0.9047835	0.0079289	0.0007567	0.000267	-0.0002113	0.0026234	-0.0108643	0.0001616	-0.0006946	-0.0099611	0.0010465	-0.0004921	-1.251698E-005	-0.0186591	0.0004208	-0.0008786	-0.0001292	0.0224894	0.0102636	0.0011795	0.0004212	-0.010014	-0.003939	-0.0004842	-0.0002909	-0.0091751	-0.0080014	-0.0004752	-0.0004501	-0.0010255	-0.0011518	-6.198884E-005	-0.0001246	-0.0021491	0.0052704	-0.0001228	0.0001744
	46	148	0.2520161	0.0512601	-0.001259	1	0.0512756	-1.406922	0.0512392	-0.00126	0.0512547	-1.408662	-0.0375853	3.441905	12	0.1950775	0.0100027	-327.5556	0.0017603	0.0015008	-0.3608481	-17.65272	-0.042325	-0.9043495	0.0125623	0.0232476	0.0005324	0.0009129	-0.0003689	-0.0039325	-7.867814E-006	-0.0003201	-0.002181	-0.0007707	-7.128717E-005	-0.0001786	0.0005212	-0.0026011	4.482269E-005	-0.000208	-0.0064941	-4.436449E-005	-0.0002773	-3.141165E-005	0.0010596	-0.0082268	5.888939E-005	-0.0004654	0.0055987	0.0021947	0.0003002	4.172325E-005	0.0050555	0.0033476	0.0002584	9.453297E-005	-0.0004331	0.0074619	2.43187E-005	0.00028
	47	170	0.2003205	0.0513931	-0.001422	1	0.0514128	-1.584867	0.0513669	-0.0014237	0.0513866	-1.587594	-0.0364242	3.441898	12	0.1945509	0.0100024	-327.5556	0.0014266	0.0012129	-0.0537573	-17.60866	-0.0290759	-0.9048449	0.0098324	0.0138409	0.0003965	0.0003693	0.0055521	0.0059414	0.0002985	9.250641E-005	0.0051972	-0.0098351	0.0002606	-0.0006284	0.0020349	-0.0022543	0.0001109	-0.000232	-0.0067117	-0.0031827	-0.0002906	-0.0002241	0.0007059	0.0077394	5.722046E-005	0.0003041	-0.0025577	-0.0006618	-0.0001049	-8.630754E-005	0.003412	0.0010417	0.0001769	1.251697E-005	-0.0003524	0.0028887	3.33786E-006	7.212162E-005
	48	197	0.1588983	0.0515243	-0.0016129	1	0.0515495	-1.793035	0.0514915	-0.001611	0.0515167	-1.792067	-0.0353461	3.441887	12	0.1940584	0.0100036	-327.5556	0.0011365	0.0009589	0.2100055	-17.56291	-0.0185184	-0.9052341	0.0039283	0.0090279	9.322166E-005	4.49121E-005	0.001765	-0.0010557	0.0001366	-0.0002308	0.0029435	0.0084952	0.0001948	0.0002773	0.0020942	0.003546	0.0001535	5.364418E-005	-0.008485	-0.0001306	-0.0004089	-8.565188E-005	-0.0082274	0.001175	-0.0004544	1.370907E-005	0.0006748	-0.0003741	6.41346E-005	-8.440019E-005	0.0014185	0.006942	8.201599E-005	0.0003116	-0.0026912	-0.0006223	-0.0001161	-0.0001416
	49	229	0.1260081	0.0517127	-0.0018354	1	0.0517453	-2.032651	0.0516657	-0.0018322	0.0516982	-2.03105	-0.0346827	3.441899	12	0.1932024	0.0099973	-327.5556	0.0015731	0.0013674	0.4407378	-17.48113	-0.0100932	-0.904796	0.0022733	0.0084108	7.295609E-005	-0.0001404	0.001556	0.0055907	8.916855E-005	-6.204845E-005	-0.0066787	-0.0062986	-0.0003052	-0.0005035	0.0091766	0.0105893	0.0004532	0.0003715	-0.0031311	0.0038792	-8.821488E-005	1.424551E-005	0.0014401	0.0027583	0.0001109	1.66893E-005	0.0018026	0.0112825	0.0001543	0.0004748	-0.0141064	0.0010196	-0.0007274	-3.826619E-005	-5.704166E-005	0.0011758	-1.28746E-005	-5.865098E-005
	50	260	0.1001603	0.0519272	-0.0020898	1	0.0519693	-2.304639	0.051849	-0.0020865	0.0518909	-2.304416	-0.0346933	3.441897	12	0.1924945	0.0100038	-327.5556	0.0015311	0.0010386	0.6374729	-17.41095	-0.0039206	-0.9054317	0.0043144	0.0132251	0.0002186	-0.0002716	-0.0003543	0.0101855	9.012222E-005	-9.834767E-006	-0.0037718	0.0096386	-0.0001063	0.0001265	-0.0045234	0.0010875	-0.0001757	-0.0002373	-0.0089007	-0.0078734	-0.0004091	-0.0006261	-0.0010364	0.0049388	-4.291535E-006	3.385544E-005	-0.0019733	0.0079316	-4.625321E-005	0.000223	-0.0015428	0.0025163	-5.126E-005	-3.540517E-005	-0.0017525	0.0063384	-5.531312E-005	0.0001439
	51	307	0.0794492	0.0521907	-0.0024009	1	0.0522459	-2.633878	0.0520408	-0.0023885	0.0520956	-2.627835	-0.0351725	3.441898	12	0.191363	0.0099979	-327.5556	0.0022782	0.0010555	0.8374467	-17.29995	0.0016668	-0.9049087	-0.0045748	0.02815	-7.271768E-005	-0.0001257	-0.0100917	0.0101401	-0.0003674	-0.0003589	-0.0054112	0.014181	-0.0001221	3.898144E-005	0.0055545	0.0110108	0.0003903	3.498793E-005	0.0023748	0.0083808	0.0001945	1.192093E-005	0.0015829	0.0031813	0.0001907	-0.0002602	-0.0002335	-0.0017426	6.055832E-005	-0.0003903	-0.0047532	0.0021997	-0.0001676	-0.0001935	0.0045412	0.0041065	0.0002933	-8.84533E-005
	52	347	0.0631739	0.0523612	-0.0027744	1	0.0524346	-3.033045	0.0522949	-0.0027684	0.0523681	-3.030359	-0.0318972	3.441892	12	0.1907705	0.010003	-327.5556	0.0015252	0.0009227	1.028017	-17.23594	0.0056069	-0.9053492	-0.0012393	0.0190922	0.0001431	8.21352E-005	-0.0043701	0.0132156	-0.0001042	0.0002775	-0.005651	-0.0048982	-0.0002239	-0.0005472	8.211099E-005	-0.0014713	7.367134E-005	-0.0003077	0.0011988	0.0014844	9.012222E-005	-0.0001126	-0.0008249	0.0020993	-2.145767E-005	-7.522107E-005	0.0014129	0.0011641	9.489059E-005	-9.036065E-005	0.0016744	-0.0008238	8.535385E-005	-0.0001434	0.0030293	0.0071344	0.000165	0.0001841
	53	397	0.0501337	0.0526255	-0.0032203	1	0.052724	-3.501701	0.0525623	-0.0032116	0.0526603	-3.496508	-0.0301626	3.441891	12	0.1895988	0.0099964	-327.5556	0.0015509	0.0010008	1.221761	-17.11698	0.0088558	-0.9047273	-6.948412E-005	0.0182871	0.0002992	-3.898145E-005	-0.0011407	0.0067912	0.0001521	-5.954505E-005	0.00063	-0.0021644	0.00014	-0.0003822	-0.0015006	0.0030155	-4.363061E-005	-7.873775E-005	-0.0006701	0.0092604	3.576279E-005	0.000304	0.0057848	0.0058422	0.0003419	0.0001317	0.0081544	0.0012298	0.0004284	-0.0001073	0.0018358	0.0023811	0.0000997	-5.710126E-005	-0.0050093	0.0073537	-0.0002115	0.0002178
	54	459	0.0398258	0.0529329	-0.0037543	1	0.0530659	-4.056958	0.0528709	-0.0037442	0.0530033	-4.050829	-0.0280507	3.441889	12	0.1885024	0.0100031	-327.5556	0.0014648	0.000632	1.424139	-17.00175	0.0113008	-0.9053024	-0.0094993	0.0188656	-4.792214E-005	-6.467105E-005	-0.0026621	0.0021585	0.0001187	-0.0003082	-0.0012919	0.0025674	5.197525E-005	-0.0001167	0.0002365	0.0027094	6.556511E-005	-9.047986E-005	-0.0004263	0.0074664	2.074242E-005	0.0002401	0.0011513	0.0034216	6.937981E-005	3.933907E-006	-0.0045349	0.0031051	-0.0002062	3.600121E-005	0.0022038	0.0027079	0.0001454	2.944469E-005	0.0033787	0.0053147	0.0001884	0.0001373
	55	561	0.0316296	0.0533088	-0.0043884	1	0.0534891	-4.706009	0.0532369	-0.0043764	0.0534165	-4.699536	-0.0259669	3.441886	12	0.1869432	0.0099994	-327.5556	0.0019285	0.0007896	1.63857	-16.84064	0.0132456	-0.904947	-0.004246	0.0257122	0.0003834	0.0001587	-0.007368	0.0120109	-3.814698E-005	0.00022	-0.0045222	0.0056886	-0.0001049	5.096197E-005	0.0052122	0.0015861	0.0003142	-0.000162	-0.0029585	0.0038828	-0.0001469	4.136562E-005	-0.0009238	0.0035884	-3.027916E-005	-2.980232E-006	-0.0040844	0.0018869	-0.0001786	-6.079675E-005	-0.0002251	0.0052525	8.583069E-006	0.000133	0.0043679	0.000238	0.0002234	-0.0001502
	56	658	0.0251206	0.0537825	-0.005145	1	0.054028	-5.46446	0.0537091	-0.0051344	0.053954	-5.46071	-0.0234455	3.441885	12	0.1851346	0.0100025	-327.5556	0.0019667	0.0004796	1.869423	-16.65187	0.0147088	-0.9051997	-0.0130398	0.0266389	0.000133	0.0001559	-0.0063259	0.006819	7.820129E-005	-5.76377E-005	-0.003833	0.0063149	5.960464E-006	0.0001143	-0.0016117	0.0021316	-1.311302E-005	-6.598235E-005	0.0023362	0.0022998	0.0001519	-3.814698E-005	-0.001221	0.0052658	-4.625321E-005	5.328655E-005	0.0003622	0.0039101	3.862381E-005	2.682209E-005	-0.000408	-0.0016164	-1.907349E-006	-0.0002375	1.614774E-005	-7.916033E-005	1.0252E-005	-0.0001767
	57	819	0.0199553	0.0543611	-0.0060284	1	0.0546943	-6.327986	0.0542882	-0.006012	0.0546201	-6.319368	-0.0205813	3.441886	12	0.1828285	0.0099997	-327.5556	0.0021336	0.0005256	2.115143	-16.41202	0.0159166	-0.9049283	-0.0145011	0.0275485	0.0002329	0.0001535	-0.0081159	0.0078673	4.124641E-005	7.659197E-005	-0.0037258	0.0018206	2.264977E-005	-8.147956E-005	-5.252634E-005	0.0070677	6.771088E-005	0.0001916	0.0008438	0.0027576	8.296967E-005	-9.417535E-006	-0.0007958	0.0026645	-4.029275E-005	-3.850461E-005	-0.0006272	0.0024323	-1.430512E-006	-3.743173E-005	0.003137	0.0062286	0.0001924	0.0001537	-0.0028213	0.0018769	-0.0001273	-6.40154E-005
	58	1022	0.0158522	0.0550812	-0.0070297	1	0.055528	-7.272984	0.0549959	-0.0070103	0.0554409	-7.264311	-0.0182444	3.441885	12	0.1801859	0.0100054	-327.5556	0.0023689	0.0004167	2.368646	-16.13564	0.0169389	-0.9054236	-0.0212215	0.0274854	0.0001192	-1.049042E-005	-0.0119249	0.0059361	-5.340577E-005	-1.92523E-005	-0.0040576	0.0011174	4.005432E-005	-0.0001404	0.0015051	0.0014535	0.0001416	-9.280444E-005	0.0007214	0.0018194	5.507469E-005	-8.445979E-005	0.0028874	0.0061319	0.0001678	9.071827E-005	0.000171	0.0027825	3.814697E-005	-4.792214E-005	0.0020897	0.0031939	0.0001431	-7.033349E-006	-0.001885	0.003396	-6.294251E-005	9.775162E-006
	59	1213	0.0125907	0.0559184	-0.0081697	1	0.0565121	-8.312076	0.0558317	-0.008145	0.0564227	-8.300047	-0.0157503	3.441881	12	0.1769748	0.0100012	-327.5556	0.0023375	0.0004484	2.624314	-15.80149	0.0175748	-0.9050362	-0.0214794	0.0256447	0.0003209	-7.745625E-005	-0.0122556	0.0030626	-7.152558E-007	-0.0001271	-0.0054343	0.0035924	7.152557E-007	8.08835E-005	-0.0014541	0.0030472	-1.28746E-005	8.761883E-006	0.0002776	0.0035465	9.536743E-006	2.509355E-005	0.0006751	0.0023911	3.194809E-005	-0.0001049	0.0002329	0.0059618	4.029274E-005	0.0001018	-0.0009238	0.0031314	-2.43187E-005	-1.931191E-005	-0.0011674	0.0017434	-1.311302E-005	-8.320809E-005
	60	1533	0.0100011	0.0569626	-0.0094522	1	0.0577415	-9.421684	0.0568779	-0.0094242	0.0576533	-9.407925	-0.0124471	3.441901	11	0.1700034	0.0098163	-327.5556	0.0024516	0.0003972	2.776066	-15.13446	0.0150149	-0.8883393	-0.022417	0.025387	0.0002973	-2.589822E-005	-0.0120481	0.0041347	4.768372E-007	-5.823375E-005	-0.005761	8.039176E-006	6.437302E-006	-0.0000968	-0.0001773	0.0018596	4.172325E-005	-2.342463E-005	-0.0006884	0.0033902	-4.386903E-005	1.966953E-005	0.000791	0.0043494	1.978874E-005	2.574921E-005	0.001123	0.0044879	8.630753E-005	3.540516E-005	-0.0015196	0.0036138	-6.1512E-005	4.768372E-006	-0.0012935	0.0026545	-2.336502E-005	-6.294251E-005
