EXPLAIN
TAG	EISPOT
TITLE	LABEL	30Q_7	Test &Identifier
DATE	LABEL	6/26/2026	Date
TIME	LABEL	11:11:34	Time
NOTES	NOTES	6	&Notes...
	Potentiostatic EIS Data Test preformed on a 30Q battery.
	- 10 AC mV rms preformed on 6/25/26
	- 30Q_7
	- Custom Battery Holder Tray. Wood Base w/ reference aligator clips connected to center of banana plug.
	- No Floating Ground
	- No Faraday Cage
PSTAT	PSTAT	REF3000-51199	Potentiostat
VDC	POTEN	0.00000E+000	T	DC &Voltage (V)
FREQINIT	QUANT	1.00000E+004	Initial Fre&q. (Hz)
FREQFINAL	QUANT	1.00000E-002	Final Fre&q. (Hz)
PTSPERDEC	QUANT	1.00000E+001	Points/&decade
VAC	QUANT	1.00000E+001	AC &Voltage (mV rms)
AREA	QUANT	2.54000E+000	&Area (cm^2)
CONDIT	TWOPARAM	F	1.50000E+001	0.00000E+000	Conditionin&g	Time(s)	E(V)
DELAY	TWOPARAM	T	1.80000E+003	0.00000E+000	Init. De&lay	Time(s)	Stab.(mV/s)
SPEED	SELECTOR	1	&Optimize for:
THD	SELECTOR	1	T&HD
DRIFTCOR	SELECTOR	1	&Drift Correction
ZGUESS	QUANT	1.00000E-001	E&stimated Z (ohms)
OCVCURVE	TABLE	718
	Pt	T	Vf	Vm	Ach	Over	Temp
	#	s	V vs. Ref.	V	V	bits	deg C
	0	2.50833	3.44211E+000	3.44211E+000	-3.48260E-004	...........	-327.56
	1	5.01667	3.44210E+000	3.44178E+000	-3.50540E-004	...........	-327.56
	2	7.525	3.44207E+000	3.44171E+000	-3.49693E-004	...........	-327.56
	3	10.0333	3.44199E+000	3.44169E+000	-3.51640E-004	...........	-327.56
	4	12.5417	3.44188E+000	3.44168E+000	-3.46607E-004	...........	-327.56
	5	15.05	3.44178E+000	3.44165E+000	-3.46813E-004	...........	-327.56
	6	17.5583	3.44171E+000	3.44163E+000	-3.44593E-004	...........	-327.56
	7	20.0667	3.44168E+000	3.44166E+000	-3.43840E-004	...........	-327.56
	8	22.575	3.44165E+000	3.44164E+000	-3.48427E-004	...........	-327.56
	9	25.0833	3.44165E+000	3.44164E+000	-3.49573E-004	...........	-327.56
	10	27.5917	3.44164E+000	3.44164E+000	-3.45587E-004	...........	-327.56
	11	30.1	3.44164E+000	3.44164E+000	-3.47753E-004	...........	-327.56
	12	32.6083	3.44164E+000	3.44162E+000	-3.46693E-004	...........	-327.56
	13	35.1167	3.44164E+000	3.44164E+000	-3.50260E-004	...........	-327.56
	14	37.625	3.44164E+000	3.44163E+000	-3.43173E-004	...........	-327.56
	15	40.1333	3.44163E+000	3.44165E+000	-3.46093E-004	...........	-327.56
	16	42.6417	3.44163E+000	3.44164E+000	-3.48193E-004	...........	-327.56
	17	45.15	3.44164E+000	3.44165E+000	-3.50900E-004	...........	-327.56
	18	47.6583	3.44164E+000	3.44163E+000	-3.52987E-004	...........	-327.56
	19	50.1667	3.44164E+000	3.44163E+000	-3.49600E-004	...........	-327.56
	20	52.675	3.44164E+000	3.44162E+000	-3.48433E-004	...........	-327.56
	21	55.1833	3.44164E+000	3.44164E+000	-3.49780E-004	...........	-327.56
	22	57.6917	3.44163E+000	3.44163E+000	-3.48633E-004	...........	-327.56
	23	60.2	3.44163E+000	3.44164E+000	-3.54807E-004	...........	-327.56
	24	62.7083	3.44163E+000	3.44164E+000	-3.52133E-004	...........	-327.56
	25	65.2167	3.44163E+000	3.44163E+000	-3.52907E-004	...........	-327.56
	26	67.725	3.44163E+000	3.44164E+000	-3.53700E-004	...........	-327.56
	27	70.2333	3.44164E+000	3.44165E+000	-3.47007E-004	...........	-327.56
	28	72.7417	3.44164E+000	3.44164E+000	-3.49080E-004	...........	-327.56
	29	75.25	3.44164E+000	3.44163E+000	-3.51433E-004	...........	-327.56
	30	77.7583	3.44164E+000	3.44164E+000	-3.51200E-004	...........	-327.56
	31	80.2667	3.44164E+000	3.44163E+000	-3.51300E-004	...........	-327.56
	32	82.775	3.44164E+000	3.44164E+000	-3.52847E-004	...........	-327.56
	33	85.2833	3.44163E+000	3.44165E+000	-3.50273E-004	...........	-327.56
	34	87.7917	3.44163E+000	3.44164E+000	-3.46587E-004	...........	-327.56
	35	90.3	3.44164E+000	3.44165E+000	-3.42773E-004	...........	-327.56
	36	92.8083	3.44164E+000	3.44164E+000	-3.47333E-004	...........	-327.56
	37	95.317	3.44164E+000	3.44165E+000	-3.43220E-004	...........	-327.56
	38	97.825	3.44164E+000	3.44164E+000	-3.44447E-004	...........	-327.56
	39	100.333	3.44165E+000	3.44165E+000	-3.47493E-004	...........	-327.56
	40	102.842	3.44165E+000	3.44165E+000	-3.47987E-004	...........	-327.56
	41	105.35	3.44165E+000	3.44162E+000	-3.50740E-004	...........	-327.56
	42	107.858	3.44165E+000	3.44164E+000	-3.54113E-004	...........	-327.56
	43	110.367	3.44164E+000	3.44165E+000	-3.51167E-004	...........	-327.56
	44	112.875	3.44164E+000	3.44163E+000	-3.46893E-004	...........	-327.56
	45	115.383	3.44164E+000	3.44165E+000	-3.51220E-004	...........	-327.56
	46	117.892	3.44164E+000	3.44168E+000	-3.49713E-004	...........	-327.56
	47	120.4	3.44165E+000	3.44166E+000	-3.46453E-004	...........	-327.56
	48	122.908	3.44165E+000	3.44164E+000	-3.48493E-004	...........	-327.56
	49	125.417	3.44166E+000	3.44165E+000	-3.46887E-004	...........	-327.56
	50	127.925	3.44166E+000	3.44167E+000	-3.49107E-004	...........	-327.56
	51	130.433	3.44166E+000	3.44165E+000	-3.49313E-004	...........	-327.56
	52	132.942	3.44166E+000	3.44164E+000	-3.47793E-004	...........	-327.56
	53	135.45	3.44166E+000	3.44165E+000	-3.50093E-004	...........	-327.56
	54	137.958	3.44165E+000	3.44166E+000	-3.51213E-004	...........	-327.56
	55	140.467	3.44165E+000	3.44165E+000	-3.49587E-004	...........	-327.56
	56	142.975	3.44165E+000	3.44164E+000	-3.45540E-004	...........	-327.56
	57	145.483	3.44165E+000	3.44165E+000	-3.46033E-004	...........	-327.56
	58	147.992	3.44165E+000	3.44167E+000	-3.49627E-004	...........	-327.56
	59	150.5	3.44165E+000	3.44165E+000	-3.47640E-004	...........	-327.56
	60	153.008	3.44165E+000	3.44165E+000	-3.51747E-004	...........	-327.56
	61	155.517	3.44165E+000	3.44164E+000	-3.45460E-004	...........	-327.56
	62	158.025	3.44165E+000	3.44164E+000	-3.46080E-004	...........	-327.56
	63	160.533	3.44165E+000	3.44164E+000	-3.43260E-004	...........	-327.56
	64	163.042	3.44165E+000	3.44165E+000	-3.45333E-004	...........	-327.56
	65	165.55	3.44165E+000	3.44166E+000	-3.46200E-004	...........	-327.56
	66	168.058	3.44165E+000	3.44166E+000	-3.46667E-004	...........	-327.56
	67	170.567	3.44165E+000	3.44164E+000	-3.48167E-004	...........	-327.56
	68	173.075	3.44165E+000	3.44164E+000	-3.48820E-004	...........	-327.56
	69	175.583	3.44165E+000	3.44164E+000	-3.45200E-004	...........	-327.56
	70	178.092	3.44165E+000	3.44165E+000	-3.45240E-004	...........	-327.56
	71	180.6	3.44164E+000	3.44165E+000	-3.47313E-004	...........	-327.56
	72	183.108	3.44164E+000	3.44166E+000	-3.46627E-004	...........	-327.56
	73	185.617	3.44164E+000	3.44165E+000	-3.50593E-004	...........	-327.56
	74	188.125	3.44165E+000	3.44169E+000	-3.47413E-004	...........	-327.56
	75	190.633	3.44166E+000	3.44167E+000	-3.46407E-004	...........	-327.56
	76	193.142	3.44166E+000	3.44168E+000	-3.49740E-004	...........	-327.56
	77	195.65	3.44167E+000	3.44167E+000	-3.43387E-004	...........	-327.56
	78	198.158	3.44168E+000	3.44169E+000	-3.49720E-004	...........	-327.56
	79	200.667	3.44168E+000	3.44168E+000	-3.51373E-004	...........	-327.56
	80	203.175	3.44168E+000	3.44169E+000	-3.51547E-004	...........	-327.56
	81	205.683	3.44168E+000	3.44170E+000	-3.49693E-004	...........	-327.56
	82	208.192	3.44169E+000	3.44168E+000	-3.50620E-004	...........	-327.56
	83	210.7	3.44169E+000	3.44168E+000	-3.49853E-004	...........	-327.56
	84	213.208	3.44169E+000	3.44167E+000	-3.46547E-004	...........	-327.56
	85	215.717	3.44169E+000	3.44169E+000	-3.56093E-004	...........	-327.56
	86	218.225	3.44168E+000	3.44168E+000	-3.48807E-004	...........	-327.56
	87	220.733	3.44168E+000	3.44168E+000	-3.49580E-004	...........	-327.56
	88	223.242	3.44168E+000	3.44169E+000	-3.50953E-004	...........	-327.56
	89	225.75	3.44168E+000	3.44169E+000	-3.52480E-004	...........	-327.56
	90	228.258	3.44169E+000	3.44170E+000	-3.51740E-004	...........	-327.56
	91	230.767	3.44169E+000	3.44169E+000	-3.50347E-004	...........	-327.56
	92	233.275	3.44169E+000	3.44169E+000	-3.50693E-004	...........	-327.56
	93	235.783	3.44169E+000	3.44168E+000	-3.52187E-004	...........	-327.56
	94	238.292	3.44169E+000	3.44167E+000	-3.46567E-004	...........	-327.56
	95	240.8	3.44169E+000	3.44166E+000	-3.55833E-004	...........	-327.56
	96	243.308	3.44168E+000	3.44167E+000	-3.51693E-004	...........	-327.56
	97	245.817	3.44167E+000	3.44167E+000	-3.53067E-004	...........	-327.56
	98	248.325	3.44167E+000	3.44166E+000	-3.49613E-004	...........	-327.56
	99	250.833	3.44167E+000	3.44167E+000	-3.48940E-004	...........	-327.56
	100	253.342	3.44167E+000	3.44167E+000	-3.50947E-004	...........	-327.56
	101	255.85	3.44167E+000	3.44167E+000	-3.44660E-004	...........	-327.56
	102	258.358	3.44167E+000	3.44167E+000	-3.51080E-004	...........	-327.56
	103	260.867	3.44167E+000	3.44168E+000	-3.52613E-004	...........	-327.56
	104	263.375	3.44167E+000	3.44165E+000	-3.53687E-004	...........	-327.56
	105	265.883	3.44167E+000	3.44167E+000	-3.55433E-004	...........	-327.56
	106	268.392	3.44167E+000	3.44166E+000	-3.46373E-004	...........	-327.56
	107	270.9	3.44167E+000	3.44166E+000	-3.51427E-004	...........	-327.56
	108	273.408	3.44167E+000	3.44167E+000	-3.52553E-004	...........	-327.56
	109	275.917	3.44167E+000	3.44168E+000	-3.51293E-004	...........	-327.56
	110	278.425	3.44167E+000	3.44165E+000	-3.51807E-004	...........	-327.56
	111	280.933	3.44167E+000	3.44166E+000	-3.51460E-004	...........	-327.56
	112	283.442	3.44167E+000	3.44167E+000	-3.53900E-004	...........	-327.56
	113	285.95	3.44166E+000	3.44167E+000	-3.53507E-004	...........	-327.56
	114	288.458	3.44166E+000	3.44166E+000	-3.48693E-004	...........	-327.56
	115	290.967	3.44166E+000	3.44168E+000	-3.52440E-004	...........	-327.56
	116	293.475	3.44166E+000	3.44167E+000	-3.50187E-004	...........	-327.56
	117	295.983	3.44167E+000	3.44166E+000	-3.52747E-004	...........	-327.56
	118	298.492	3.44167E+000	3.44166E+000	-3.53560E-004	...........	-327.56
	119	301	3.44167E+000	3.44167E+000	-3.52127E-004	...........	-327.56
	120	303.508	3.44167E+000	3.44167E+000	-3.55653E-004	...........	-327.56
	121	306.017	3.44167E+000	3.44166E+000	-3.49547E-004	...........	-327.56
	122	308.525	3.44167E+000	3.44169E+000	-3.53087E-004	...........	-327.56
	123	311.033	3.44167E+000	3.44167E+000	-3.52753E-004	...........	-327.56
	124	313.542	3.44167E+000	3.44167E+000	-3.51113E-004	...........	-327.56
	125	316.05	3.44167E+000	3.44168E+000	-3.52387E-004	...........	-327.56
	126	318.558	3.44168E+000	3.44168E+000	-3.51047E-004	...........	-327.56
	127	321.067	3.44167E+000	3.44166E+000	-3.52480E-004	...........	-327.56
	128	323.575	3.44167E+000	3.44167E+000	-3.48567E-004	...........	-327.56
	129	326.083	3.44167E+000	3.44167E+000	-3.55307E-004	...........	-327.56
	130	328.592	3.44167E+000	3.44168E+000	-3.53693E-004	...........	-327.56
	131	331.1	3.44167E+000	3.44167E+000	-3.44633E-004	...........	-327.56
	132	333.608	3.44167E+000	3.44167E+000	-3.50980E-004	...........	-327.56
	133	336.117	3.44167E+000	3.44167E+000	-3.51140E-004	...........	-327.56
	134	338.625	3.44167E+000	3.44167E+000	-3.49693E-004	...........	-327.56
	135	341.133	3.44167E+000	3.44167E+000	-3.55047E-004	...........	-327.56
	136	343.642	3.44167E+000	3.44167E+000	-3.51587E-004	...........	-327.56
	137	346.15	3.44167E+000	3.44168E+000	-3.53647E-004	...........	-327.56
	138	348.658	3.44167E+000	3.44167E+000	-3.54327E-004	...........	-327.56
	139	351.167	3.44167E+000	3.44168E+000	-3.52613E-004	...........	-327.56
	140	353.675	3.44168E+000	3.44168E+000	-3.51327E-004	...........	-327.56
	141	356.183	3.44168E+000	3.44167E+000	-3.52387E-004	...........	-327.56
	142	358.692	3.44168E+000	3.44167E+000	-3.52087E-004	...........	-327.56
	143	361.2	3.44168E+000	3.44168E+000	-3.55087E-004	...........	-327.56
	144	363.708	3.44168E+000	3.44169E+000	-3.55880E-004	...........	-327.56
	145	366.217	3.44168E+000	3.44170E+000	-3.56127E-004	...........	-327.56
	146	368.725	3.44168E+000	3.44168E+000	-3.56793E-004	...........	-327.56
	147	371.233	3.44168E+000	3.44169E+000	-3.55073E-004	...........	-327.56
	148	373.742	3.44169E+000	3.44168E+000	-3.50987E-004	...........	-327.56
	149	376.25	3.44169E+000	3.44168E+000	-3.48553E-004	...........	-327.56
	150	378.758	3.44168E+000	3.44167E+000	-3.50700E-004	...........	-327.56
	151	381.267	3.44168E+000	3.44167E+000	-3.53840E-004	...........	-327.56
	152	383.775	3.44168E+000	3.44170E+000	-3.51693E-004	...........	-327.56
	153	386.283	3.44168E+000	3.44169E+000	-3.53007E-004	...........	-327.56
	154	388.792	3.44168E+000	3.44167E+000	-3.50887E-004	...........	-327.56
	155	391.3	3.44168E+000	3.44168E+000	-3.49913E-004	...........	-327.56
	156	393.808	3.44168E+000	3.44171E+000	-3.51527E-004	...........	-327.56
	157	396.317	3.44168E+000	3.44170E+000	-3.50460E-004	...........	-327.56
	158	398.825	3.44169E+000	3.44167E+000	-3.50380E-004	...........	-327.56
	159	401.333	3.44169E+000	3.44169E+000	-3.54160E-004	...........	-327.56
	160	403.842	3.44169E+000	3.44168E+000	-3.55627E-004	...........	-327.56
	161	406.35	3.44169E+000	3.44169E+000	-3.50000E-004	...........	-327.56
	162	408.858	3.44169E+000	3.44168E+000	-3.58320E-004	...........	-327.56
	163	411.367	3.44168E+000	3.44168E+000	-3.56993E-004	...........	-327.56
	164	413.875	3.44168E+000	3.44169E+000	-3.50873E-004	...........	-327.56
	165	416.383	3.44168E+000	3.44168E+000	-3.53620E-004	...........	-327.56
	166	418.892	3.44168E+000	3.44168E+000	-3.57373E-004	...........	-327.56
	167	421.4	3.44168E+000	3.44169E+000	-3.56280E-004	...........	-327.56
	168	423.908	3.44168E+000	3.44168E+000	-3.50373E-004	...........	-327.56
	169	426.417	3.44168E+000	3.44168E+000	-3.49340E-004	...........	-327.56
	170	428.925	3.44168E+000	3.44168E+000	-3.48207E-004	...........	-327.56
	171	431.433	3.44168E+000	3.44168E+000	-3.51480E-004	...........	-327.56
	172	433.942	3.44168E+000	3.44169E+000	-3.53527E-004	...........	-327.56
	173	436.45	3.44168E+000	3.44169E+000	-3.54187E-004	...........	-327.56
	174	438.958	3.44168E+000	3.44168E+000	-3.53273E-004	...........	-327.56
	175	441.467	3.44169E+000	3.44168E+000	-3.52180E-004	...........	-327.56
	176	443.975	3.44169E+000	3.44168E+000	-3.55400E-004	...........	-327.56
	177	446.483	3.44168E+000	3.44168E+000	-3.61227E-004	...........	-327.56
	178	448.992	3.44168E+000	3.44168E+000	-3.54253E-004	...........	-327.56
	179	451.5	3.44168E+000	3.44168E+000	-3.56660E-004	...........	-327.56
	180	454.008	3.44168E+000	3.44169E+000	-3.54573E-004	...........	-327.56
	181	456.517	3.44168E+000	3.44168E+000	-3.56527E-004	...........	-327.56
	182	459.025	3.44168E+000	3.44170E+000	-3.54287E-004	...........	-327.56
	183	461.533	3.44169E+000	3.44170E+000	-3.56653E-004	...........	-327.56
	184	464.042	3.44169E+000	3.44170E+000	-3.55073E-004	...........	-327.56
	185	466.55	3.44169E+000	3.44169E+000	-3.53513E-004	...........	-327.56
	186	469.058	3.44170E+000	3.44168E+000	-3.45927E-004	...........	-327.56
	187	471.567	3.44169E+000	3.44167E+000	-3.52247E-004	...........	-327.56
	188	474.075	3.44169E+000	3.44168E+000	-3.57353E-004	...........	-327.56
	189	476.583	3.44168E+000	3.44168E+000	-3.54747E-004	...........	-327.56
	190	479.092	3.44168E+000	3.44169E+000	-3.52547E-004	...........	-327.56
	191	481.6	3.44168E+000	3.44169E+000	-3.57173E-004	...........	-327.56
	192	484.108	3.44168E+000	3.44169E+000	-3.53880E-004	...........	-327.56
	193	486.617	3.44168E+000	3.44168E+000	-3.51493E-004	...........	-327.56
	194	489.125	3.44169E+000	3.44167E+000	-3.50147E-004	...........	-327.56
	195	491.633	3.44169E+000	3.44168E+000	-3.52667E-004	...........	-327.56
	196	494.142	3.44168E+000	3.44168E+000	-3.54393E-004	...........	-327.56
	197	496.65	3.44168E+000	3.44168E+000	-3.55173E-004	...........	-327.56
	198	499.158	3.44168E+000	3.44168E+000	-3.48420E-004	...........	-327.56
	199	501.667	3.44168E+000	3.44168E+000	-3.50067E-004	...........	-327.56
	200	504.175	3.44168E+000	3.44167E+000	-3.49153E-004	...........	-327.56
	201	506.683	3.44168E+000	3.44166E+000	-3.51320E-004	...........	-327.56
	202	509.192	3.44168E+000	3.44169E+000	-3.47740E-004	...........	-327.56
	203	511.7	3.44167E+000	3.44168E+000	-3.50480E-004	...........	-327.56
	204	514.208	3.44167E+000	3.44168E+000	-3.51340E-004	...........	-327.56
	205	516.717	3.44168E+000	3.44168E+000	-3.52347E-004	...........	-327.56
	206	519.225	3.44168E+000	3.44167E+000	-3.52573E-004	...........	-327.56
	207	521.733	3.44168E+000	3.44168E+000	-3.53067E-004	...........	-327.56
	208	524.242	3.44168E+000	3.44168E+000	-3.48520E-004	...........	-327.56
	209	526.75	3.44168E+000	3.44168E+000	-3.51047E-004	...........	-327.56
	210	529.258	3.44168E+000	3.44168E+000	-3.55733E-004	...........	-327.56
	211	531.767	3.44168E+000	3.44167E+000	-3.54127E-004	...........	-327.56
	212	534.275	3.44168E+000	3.44167E+000	-3.49080E-004	...........	-327.56
	213	536.783	3.44168E+000	3.44170E+000	-3.49480E-004	...........	-327.56
	214	539.292	3.44168E+000	3.44169E+000	-3.50287E-004	...........	-327.56
	215	541.8	3.44168E+000	3.44167E+000	-3.54227E-004	...........	-327.56
	216	544.308	3.44168E+000	3.44167E+000	-3.56467E-004	...........	-327.56
	217	546.817	3.44168E+000	3.44169E+000	-3.55600E-004	...........	-327.56
	218	549.325	3.44168E+000	3.44168E+000	-3.55100E-004	...........	-327.56
	219	551.833	3.44168E+000	3.44167E+000	-3.53873E-004	...........	-327.56
	220	554.342	3.44168E+000	3.44168E+000	-3.55973E-004	...........	-327.56
	221	556.85	3.44168E+000	3.44169E+000	-3.53213E-004	...........	-327.56
	222	559.358	3.44168E+000	3.44169E+000	-3.52027E-004	...........	-327.56
	223	561.867	3.44168E+000	3.44170E+000	-3.52087E-004	...........	-327.56
	224	564.375	3.44169E+000	3.44169E+000	-3.53993E-004	...........	-327.56
	225	566.883	3.44169E+000	3.44170E+000	-3.55480E-004	...........	-327.56
	226	569.392	3.44169E+000	3.44167E+000	-3.54513E-004	...........	-327.56
	227	571.9	3.44169E+000	3.44169E+000	-3.54707E-004	...........	-327.56
	228	574.408	3.44169E+000	3.44167E+000	-3.55240E-004	...........	-327.56
	229	576.917	3.44168E+000	3.44169E+000	-3.55093E-004	...........	-327.56
	230	579.425	3.44168E+000	3.44168E+000	-3.56373E-004	...........	-327.56
	231	581.933	3.44168E+000	3.44168E+000	-3.55033E-004	...........	-327.56
	232	584.442	3.44168E+000	3.44170E+000	-3.56967E-004	...........	-327.56
	233	586.95	3.44168E+000	3.44168E+000	-3.56073E-004	...........	-327.56
	234	589.458	3.44169E+000	3.44169E+000	-3.56107E-004	...........	-327.56
	235	591.967	3.44169E+000	3.44170E+000	-3.56340E-004	...........	-327.56
	236	594.475	3.44169E+000	3.44168E+000	-3.52720E-004	...........	-327.56
	237	596.983	3.44169E+000	3.44170E+000	-3.53027E-004	...........	-327.56
	238	599.492	3.44169E+000	3.44168E+000	-3.53660E-004	...........	-327.56
	239	602	3.44169E+000	3.44168E+000	-3.49760E-004	...........	-327.56
	240	604.508	3.44169E+000	3.44170E+000	-3.50800E-004	...........	-327.56
	241	607.017	3.44169E+000	3.44169E+000	-3.50813E-004	...........	-327.56
	242	609.525	3.44169E+000	3.44169E+000	-3.49767E-004	...........	-327.56
	243	612.033	3.44169E+000	3.44168E+000	-3.51167E-004	...........	-327.56
	244	614.542	3.44169E+000	3.44170E+000	-3.55687E-004	...........	-327.56
	245	617.05	3.44169E+000	3.44168E+000	-3.53173E-004	...........	-327.56
	246	619.558	3.44169E+000	3.44169E+000	-3.50667E-004	...........	-327.56
	247	622.067	3.44169E+000	3.44168E+000	-3.49607E-004	...........	-327.56
	248	624.575	3.44169E+000	3.44170E+000	-3.52340E-004	...........	-327.56
	249	627.083	3.44169E+000	3.44169E+000	-3.51340E-004	...........	-327.56
	250	629.592	3.44169E+000	3.44169E+000	-3.49627E-004	...........	-327.56
	251	632.1	3.44169E+000	3.44168E+000	-3.50580E-004	...........	-327.56
	252	634.608	3.44169E+000	3.44169E+000	-3.52307E-004	...........	-327.56
	253	637.117	3.44169E+000	3.44170E+000	-3.53127E-004	...........	-327.56
	254	639.625	3.44169E+000	3.44170E+000	-3.56100E-004	...........	-327.56
	255	642.133	3.44169E+000	3.44171E+000	-3.53560E-004	...........	-327.56
	256	644.642	3.44169E+000	3.44169E+000	-3.52900E-004	...........	-327.56
	257	647.15	3.44170E+000	3.44169E+000	-3.54113E-004	...........	-327.56
	258	649.658	3.44170E+000	3.44169E+000	-3.59287E-004	...........	-327.56
	259	652.167	3.44169E+000	3.44171E+000	-3.55540E-004	...........	-327.56
	260	654.675	3.44169E+000	3.44168E+000	-3.55527E-004	...........	-327.56
	261	657.183	3.44169E+000	3.44171E+000	-3.56193E-004	...........	-327.56
	262	659.692	3.44169E+000	3.44169E+000	-3.54987E-004	...........	-327.56
	263	662.2	3.44169E+000	3.44169E+000	-3.55813E-004	...........	-327.56
	264	664.708	3.44169E+000	3.44171E+000	-3.56820E-004	...........	-327.56
	265	667.217	3.44170E+000	3.44169E+000	-3.54887E-004	...........	-327.56
	266	669.725	3.44170E+000	3.44169E+000	-3.56480E-004	...........	-327.56
	267	672.233	3.44170E+000	3.44168E+000	-3.54233E-004	...........	-327.56
	268	674.742	3.44169E+000	3.44169E+000	-3.49847E-004	...........	-327.56
	269	677.25	3.44169E+000	3.44171E+000	-3.53660E-004	...........	-327.56
	270	679.758	3.44169E+000	3.44169E+000	-3.49900E-004	...........	-327.56
	271	682.267	3.44169E+000	3.44169E+000	-3.54793E-004	...........	-327.56
	272	684.775	3.44170E+000	3.44168E+000	-3.50293E-004	...........	-327.56
	273	687.283	3.44170E+000	3.44169E+000	-3.52593E-004	...........	-327.56
	274	689.792	3.44169E+000	3.44168E+000	-3.54220E-004	...........	-327.56
	275	692.3	3.44169E+000	3.44171E+000	-3.53940E-004	...........	-327.56
	276	694.808	3.44169E+000	3.44169E+000	-3.52287E-004	...........	-327.56
	277	697.317	3.44169E+000	3.44169E+000	-3.53500E-004	...........	-327.56
	278	699.825	3.44169E+000	3.44169E+000	-3.56433E-004	...........	-327.56
	279	702.333	3.44169E+000	3.44169E+000	-3.55853E-004	...........	-327.56
	280	704.842	3.44169E+000	3.44170E+000	-3.53800E-004	...........	-327.56
	281	707.35	3.44169E+000	3.44168E+000	-3.53167E-004	...........	-327.56
	282	709.858	3.44169E+000	3.44169E+000	-3.56540E-004	...........	-327.56
	283	712.367	3.44169E+000	3.44169E+000	-3.55560E-004	...........	-327.56
	284	714.875	3.44169E+000	3.44167E+000	-3.51980E-004	...........	-327.56
	285	717.383	3.44169E+000	3.44167E+000	-3.53600E-004	...........	-327.56
	286	719.892	3.44169E+000	3.44169E+000	-3.52260E-004	...........	-327.56
	287	722.4	3.44168E+000	3.44167E+000	-3.50527E-004	...........	-327.56
	288	724.908	3.44168E+000	3.44169E+000	-3.53527E-004	...........	-327.56
	289	727.417	3.44168E+000	3.44168E+000	-3.51573E-004	...........	-327.56
	290	729.925	3.44168E+000	3.44170E+000	-3.53280E-004	...........	-327.56
	291	732.433	3.44168E+000	3.44169E+000	-3.53327E-004	...........	-327.56
	292	734.942	3.44169E+000	3.44168E+000	-3.54607E-004	...........	-327.56
	293	737.45	3.44169E+000	3.44169E+000	-3.56033E-004	...........	-327.56
	294	739.958	3.44169E+000	3.44170E+000	-3.54380E-004	...........	-327.56
	295	742.467	3.44169E+000	3.44170E+000	-3.51847E-004	...........	-327.56
	296	744.975	3.44169E+000	3.44170E+000	-3.53093E-004	...........	-327.56
	297	747.483	3.44170E+000	3.44170E+000	-3.58933E-004	...........	-327.56
	298	749.992	3.44170E+000	3.44170E+000	-3.60293E-004	...........	-327.56
	299	752.5	3.44170E+000	3.44173E+000	-3.58453E-004	...........	-327.56
	300	755.008	3.44170E+000	3.44174E+000	-3.59607E-004	...........	-327.56
	301	757.517	3.44171E+000	3.44173E+000	-3.59707E-004	...........	-327.56
	302	760.025	3.44172E+000	3.44172E+000	-3.59827E-004	...........	-327.56
	303	762.533	3.44172E+000	3.44170E+000	-3.57973E-004	...........	-327.56
	304	765.042	3.44172E+000	3.44171E+000	-3.58407E-004	...........	-327.56
	305	767.55	3.44172E+000	3.44169E+000	-3.58320E-004	...........	-327.56
	306	770.058	3.44171E+000	3.44169E+000	-3.55900E-004	...........	-327.56
	307	772.567	3.44170E+000	3.44169E+000	-3.58220E-004	...........	-327.56
	308	775.075	3.44170E+000	3.44170E+000	-3.57447E-004	...........	-327.56
	309	777.583	3.44169E+000	3.44171E+000	-3.50400E-004	...........	-327.56
	310	780.092	3.44170E+000	3.44168E+000	-3.54327E-004	...........	-327.56
	311	782.6	3.44170E+000	3.44170E+000	-3.53353E-004	...........	-327.56
	312	785.108	3.44170E+000	3.44172E+000	-3.53693E-004	...........	-327.56
	313	787.617	3.44170E+000	3.44170E+000	-3.51693E-004	...........	-327.56
	314	790.125	3.44170E+000	3.44169E+000	-3.54140E-004	...........	-327.56
	315	792.633	3.44170E+000	3.44169E+000	-3.56513E-004	...........	-327.56
	316	795.142	3.44170E+000	3.44171E+000	-3.55673E-004	...........	-327.56
	317	797.65	3.44170E+000	3.44169E+000	-3.53047E-004	...........	-327.56
	318	800.158	3.44170E+000	3.44171E+000	-3.52127E-004	...........	-327.56
	319	802.667	3.44170E+000	3.44170E+000	-3.54000E-004	...........	-327.56
	320	805.175	3.44170E+000	3.44171E+000	-3.53073E-004	...........	-327.56
	321	807.683	3.44170E+000	3.44171E+000	-3.52587E-004	...........	-327.56
	322	810.192	3.44170E+000	3.44170E+000	-3.51880E-004	...........	-327.56
	323	812.7	3.44171E+000	3.44170E+000	-3.53493E-004	...........	-327.56
	324	815.208	3.44171E+000	3.44172E+000	-3.51060E-004	...........	-327.56
	325	817.717	3.44171E+000	3.44169E+000	-3.53353E-004	...........	-327.56
	326	820.225	3.44171E+000	3.44170E+000	-3.50840E-004	...........	-327.56
	327	822.733	3.44171E+000	3.44170E+000	-3.46607E-004	...........	-327.56
	328	825.242	3.44170E+000	3.44171E+000	-3.45907E-004	...........	-327.56
	329	827.75	3.44170E+000	3.44170E+000	-3.47947E-004	...........	-327.56
	330	830.258	3.44170E+000	3.44170E+000	-3.52393E-004	...........	-327.56
	331	832.767	3.44170E+000	3.44170E+000	-3.46280E-004	...........	-327.56
	332	835.275	3.44170E+000	3.44170E+000	-3.52360E-004	...........	-327.56
	333	837.783	3.44170E+000	3.44170E+000	-3.54307E-004	...........	-327.56
	334	840.292	3.44170E+000	3.44172E+000	-3.50180E-004	...........	-327.56
	335	842.8	3.44170E+000	3.44170E+000	-3.50667E-004	...........	-327.56
	336	845.308	3.44170E+000	3.44172E+000	-3.53373E-004	...........	-327.56
	337	847.817	3.44171E+000	3.44170E+000	-3.54247E-004	...........	-327.56
	338	850.325	3.44171E+000	3.44171E+000	-3.55207E-004	...........	-327.56
	339	852.833	3.44171E+000	3.44170E+000	-3.52633E-004	...........	-327.56
	340	855.342	3.44171E+000	3.44170E+000	-3.58580E-004	...........	-327.56
	341	857.85	3.44171E+000	3.44171E+000	-3.52460E-004	...........	-327.56
	342	860.358	3.44171E+000	3.44170E+000	-3.51707E-004	...........	-327.56
	343	862.867	3.44171E+000	3.44170E+000	-3.56113E-004	...........	-327.56
	344	865.375	3.44170E+000	3.44170E+000	-3.53353E-004	...........	-327.56
	345	867.883	3.44170E+000	3.44171E+000	-3.56407E-004	...........	-327.56
	346	870.392	3.44170E+000	3.44171E+000	-3.55807E-004	...........	-327.56
	347	872.9	3.44170E+000	3.44171E+000	-3.57527E-004	...........	-327.56
	348	875.408	3.44171E+000	3.44169E+000	-3.60460E-004	...........	-327.56
	349	877.917	3.44171E+000	3.44172E+000	-3.57973E-004	...........	-327.56
	350	880.425	3.44171E+000	3.44171E+000	-3.55900E-004	...........	-327.56
	351	882.933	3.44171E+000	3.44171E+000	-3.54147E-004	...........	-327.56
	352	885.442	3.44171E+000	3.44171E+000	-3.57247E-004	...........	-327.56
	353	887.95	3.44171E+000	3.44170E+000	-3.55240E-004	...........	-327.56
	354	890.458	3.44171E+000	3.44171E+000	-3.49973E-004	...........	-327.56
	355	892.967	3.44171E+000	3.44171E+000	-3.55400E-004	...........	-327.56
	356	895.475	3.44171E+000	3.44172E+000	-3.56427E-004	...........	-327.56
	357	897.983	3.44171E+000	3.44172E+000	-3.56113E-004	...........	-327.56
	358	900.492	3.44171E+000	3.44174E+000	-3.56893E-004	...........	-327.56
	359	903	3.44172E+000	3.44171E+000	-3.57467E-004	...........	-327.56
	360	905.508	3.44172E+000	3.44171E+000	-3.55900E-004	...........	-327.56
	361	908.017	3.44172E+000	3.44170E+000	-3.54413E-004	...........	-327.56
	362	910.525	3.44172E+000	3.44170E+000	-3.58207E-004	...........	-327.56
	363	913.033	3.44171E+000	3.44171E+000	-3.53307E-004	...........	-327.56
	364	915.542	3.44171E+000	3.44170E+000	-3.57487E-004	...........	-327.56
	365	918.05	3.44171E+000	3.44170E+000	-3.54807E-004	...........	-327.56
	366	920.558	3.44170E+000	3.44171E+000	-3.59327E-004	...........	-327.56
	367	923.067	3.44170E+000	3.44170E+000	-3.54720E-004	...........	-327.56
	368	925.575	3.44170E+000	3.44170E+000	-3.53487E-004	...........	-327.56
	369	928.083	3.44170E+000	3.44172E+000	-3.54147E-004	...........	-327.56
	370	930.592	3.44170E+000	3.44170E+000	-3.57700E-004	...........	-327.56
	371	933.1	3.44171E+000	3.44171E+000	-3.59480E-004	...........	-327.56
	372	935.608	3.44171E+000	3.44171E+000	-3.55800E-004	...........	-327.56
	373	938.117	3.44171E+000	3.44172E+000	-3.61780E-004	...........	-327.56
	374	940.625	3.44171E+000	3.44171E+000	-3.57740E-004	...........	-327.56
	375	943.133	3.44171E+000	3.44170E+000	-3.55080E-004	...........	-327.56
	376	945.642	3.44171E+000	3.44170E+000	-3.57487E-004	...........	-327.56
	377	948.15	3.44171E+000	3.44172E+000	-3.56067E-004	...........	-327.56
	378	950.66	3.44171E+000	3.44170E+000	-3.57247E-004	...........	-327.56
	379	953.17	3.44171E+000	3.44172E+000	-3.56520E-004	...........	-327.56
	380	955.68	3.44171E+000	3.44171E+000	-3.57307E-004	...........	-327.56
	381	958.18	3.44171E+000	3.44172E+000	-3.57840E-004	...........	-327.56
	382	960.69	3.44171E+000	3.44170E+000	-3.60700E-004	...........	-327.56
	383	963.2	3.44171E+000	3.44172E+000	-3.58127E-004	...........	-327.56
	384	965.71	3.44171E+000	3.44171E+000	-3.56920E-004	...........	-327.56
	385	968.22	3.44171E+000	3.44171E+000	-3.60667E-004	...........	-327.56
	386	970.73	3.44171E+000	3.44172E+000	-3.60893E-004	...........	-327.56
	387	973.23	3.44171E+000	3.44168E+000	-3.63733E-004	...........	-327.56
	388	975.74	3.44171E+000	3.44171E+000	-3.54820E-004	...........	-327.56
	389	978.25	3.44171E+000	3.44172E+000	-3.56033E-004	...........	-327.56
	390	980.76	3.44171E+000	3.44171E+000	-3.52827E-004	...........	-327.56
	391	983.27	3.44171E+000	3.44171E+000	-3.53707E-004	...........	-327.56
	392	985.78	3.44171E+000	3.44171E+000	-3.61107E-004	...........	-327.56
	393	988.28	3.44171E+000	3.44170E+000	-3.53700E-004	...........	-327.56
	394	990.79	3.44171E+000	3.44173E+000	-3.54993E-004	...........	-327.56
	395	993.3	3.44171E+000	3.44173E+000	-3.52667E-004	...........	-327.56
	396	995.81	3.44171E+000	3.44171E+000	-3.56627E-004	...........	-327.56
	397	998.32	3.44172E+000	3.44171E+000	-3.55207E-004	...........	-327.56
	398	1000.83	3.44172E+000	3.44173E+000	-3.56580E-004	...........	-327.56
	399	1003.33	3.44172E+000	3.44171E+000	-3.58907E-004	...........	-327.56
	400	1005.84	3.44172E+000	3.44171E+000	-3.55153E-004	...........	-327.56
	401	1008.35	3.44172E+000	3.44171E+000	-3.57120E-004	...........	-327.56
	402	1010.86	3.44172E+000	3.44171E+000	-3.59913E-004	...........	-327.56
	403	1013.37	3.44171E+000	3.44171E+000	-3.56533E-004	...........	-327.56
	404	1015.88	3.44171E+000	3.44173E+000	-3.58840E-004	...........	-327.56
	405	1018.38	3.44171E+000	3.44171E+000	-3.54973E-004	...........	-327.56
	406	1020.89	3.44171E+000	3.44170E+000	-3.57647E-004	...........	-327.56
	407	1023.4	3.44171E+000	3.44169E+000	-3.56293E-004	...........	-327.56
	408	1025.91	3.44171E+000	3.44172E+000	-3.55053E-004	...........	-327.56
	409	1028.42	3.44171E+000	3.44171E+000	-3.53560E-004	...........	-327.56
	410	1030.93	3.44171E+000	3.44169E+000	-3.53593E-004	...........	-327.56
	411	1033.43	3.44171E+000	3.44171E+000	-3.51413E-004	...........	-327.56
	412	1035.94	3.44171E+000	3.44173E+000	-3.55867E-004	...........	-327.56
	413	1038.45	3.44171E+000	3.44171E+000	-3.57067E-004	...........	-327.56
	414	1040.96	3.44171E+000	3.44171E+000	-3.54020E-004	...........	-327.56
	415	1043.47	3.44171E+000	3.44171E+000	-3.51347E-004	...........	-327.56
	416	1045.98	3.44172E+000	3.44170E+000	-3.52733E-004	...........	-327.56
	417	1048.48	3.44171E+000	3.44172E+000	-3.55820E-004	...........	-327.56
	418	1050.99	3.44171E+000	3.44171E+000	-3.54640E-004	...........	-327.56
	419	1053.5	3.44171E+000	3.44172E+000	-3.57507E-004	...........	-327.56
	420	1056.01	3.44171E+000	3.44171E+000	-3.57860E-004	...........	-327.56
	421	1058.52	3.44171E+000	3.44171E+000	-3.54587E-004	...........	-327.56
	422	1061.03	3.44171E+000	3.44171E+000	-3.52853E-004	...........	-327.56
	423	1063.53	3.44171E+000	3.44172E+000	-3.57420E-004	...........	-327.56
	424	1066.04	3.44171E+000	3.44172E+000	-3.55760E-004	...........	-327.56
	425	1068.55	3.44171E+000	3.44171E+000	-3.55520E-004	...........	-327.56
	426	1071.06	3.44172E+000	3.44171E+000	-3.57307E-004	...........	-327.56
	427	1073.57	3.44172E+000	3.44173E+000	-3.58980E-004	...........	-327.56
	428	1076.08	3.44172E+000	3.44172E+000	-3.53140E-004	...........	-327.56
	429	1078.58	3.44172E+000	3.44172E+000	-3.53887E-004	...........	-327.56
	430	1081.09	3.44172E+000	3.44171E+000	-3.55200E-004	...........	-327.56
	431	1083.6	3.44172E+000	3.44172E+000	-3.53853E-004	...........	-327.56
	432	1086.11	3.44172E+000	3.44171E+000	-3.50280E-004	...........	-327.56
	433	1088.62	3.44172E+000	3.44172E+000	-3.54127E-004	...........	-327.56
	434	1091.13	3.44172E+000	3.44171E+000	-3.54573E-004	...........	-327.56
	435	1093.63	3.44171E+000	3.44172E+000	-3.57873E-004	...........	-327.56
	436	1096.14	3.44171E+000	3.44173E+000	-3.54393E-004	...........	-327.56
	437	1098.65	3.44171E+000	3.44172E+000	-3.55220E-004	...........	-327.56
	438	1101.16	3.44172E+000	3.44171E+000	-3.54833E-004	...........	-327.56
	439	1103.67	3.44172E+000	3.44172E+000	-3.53727E-004	...........	-327.56
	440	1106.18	3.44172E+000	3.44171E+000	-3.54520E-004	...........	-327.56
	441	1108.68	3.44172E+000	3.44171E+000	-3.58367E-004	...........	-327.56
	442	1111.19	3.44172E+000	3.44172E+000	-3.56553E-004	...........	-327.56
	443	1113.7	3.44172E+000	3.44171E+000	-3.59600E-004	...........	-327.56
	444	1116.21	3.44172E+000	3.44173E+000	-3.56933E-004	...........	-327.56
	445	1118.72	3.44172E+000	3.44172E+000	-3.52180E-004	...........	-327.56
	446	1121.23	3.44172E+000	3.44172E+000	-3.56153E-004	...........	-327.56
	447	1123.73	3.44172E+000	3.44171E+000	-3.54440E-004	...........	-327.56
	448	1126.24	3.44172E+000	3.44171E+000	-3.59400E-004	...........	-327.56
	449	1128.75	3.44172E+000	3.44171E+000	-3.58273E-004	...........	-327.56
	450	1131.26	3.44172E+000	3.44172E+000	-3.57200E-004	...........	-327.56
	451	1133.77	3.44171E+000	3.44171E+000	-3.55053E-004	...........	-327.56
	452	1136.28	3.44171E+000	3.44172E+000	-3.59273E-004	...........	-327.56
	453	1138.78	3.44171E+000	3.44171E+000	-3.56293E-004	...........	-327.56
	454	1141.29	3.44172E+000	3.44171E+000	-3.55887E-004	...........	-327.56
	455	1143.8	3.44172E+000	3.44176E+000	-3.56453E-004	...........	-327.56
	456	1146.31	3.44172E+000	3.44174E+000	-3.55720E-004	...........	-327.56
	457	1148.82	3.44172E+000	3.44171E+000	-3.52753E-004	...........	-327.56
	458	1151.33	3.44173E+000	3.44172E+000	-3.52640E-004	...........	-327.56
	459	1153.83	3.44173E+000	3.44172E+000	-3.53193E-004	...........	-327.56
	460	1156.34	3.44173E+000	3.44171E+000	-3.55467E-004	...........	-327.56
	461	1158.85	3.44172E+000	3.44171E+000	-3.54007E-004	...........	-327.56
	462	1161.36	3.44172E+000	3.44170E+000	-3.51987E-004	...........	-327.56
	463	1163.87	3.44171E+000	3.44172E+000	-3.53407E-004	...........	-327.56
	464	1166.38	3.44171E+000	3.44171E+000	-3.53080E-004	...........	-327.56
	465	1168.88	3.44171E+000	3.44173E+000	-3.55347E-004	...........	-327.56
	466	1171.39	3.44171E+000	3.44171E+000	-3.53860E-004	...........	-327.56
	467	1173.9	3.44171E+000	3.44170E+000	-3.54047E-004	...........	-327.56
	468	1176.41	3.44171E+000	3.44170E+000	-3.58633E-004	...........	-327.56
	469	1178.92	3.44171E+000	3.44170E+000	-3.54760E-004	...........	-327.56
	470	1181.43	3.44171E+000	3.44171E+000	-3.58247E-004	...........	-327.56
	471	1183.93	3.44170E+000	3.44172E+000	-3.56333E-004	...........	-327.56
	472	1186.44	3.44171E+000	3.44171E+000	-3.57120E-004	...........	-327.56
	473	1188.95	3.44171E+000	3.44172E+000	-3.52447E-004	...........	-327.56
	474	1191.46	3.44171E+000	3.44171E+000	-3.54387E-004	...........	-327.56
	475	1193.97	3.44171E+000	3.44172E+000	-3.52913E-004	...........	-327.56
	476	1196.48	3.44172E+000	3.44171E+000	-3.51960E-004	...........	-327.56
	477	1198.98	3.44172E+000	3.44171E+000	-3.57220E-004	...........	-327.56
	478	1201.49	3.44172E+000	3.44172E+000	-3.58427E-004	...........	-327.56
	479	1204	3.44171E+000	3.44171E+000	-3.56167E-004	...........	-327.56
	480	1206.51	3.44171E+000	3.44172E+000	-3.53700E-004	...........	-327.56
	481	1209.02	3.44171E+000	3.44172E+000	-3.54287E-004	...........	-327.56
	482	1211.53	3.44171E+000	3.44172E+000	-3.53513E-004	...........	-327.56
	483	1214.03	3.44172E+000	3.44173E+000	-3.53600E-004	...........	-327.56
	484	1216.54	3.44172E+000	3.44171E+000	-3.56580E-004	...........	-327.56
	485	1219.05	3.44172E+000	3.44172E+000	-3.56667E-004	...........	-327.56
	486	1221.56	3.44172E+000	3.44171E+000	-3.54133E-004	...........	-327.56
	487	1224.07	3.44172E+000	3.44171E+000	-3.54113E-004	...........	-327.56
	488	1226.58	3.44172E+000	3.44171E+000	-3.52813E-004	...........	-327.56
	489	1229.08	3.44171E+000	3.44170E+000	-3.55613E-004	...........	-327.56
	490	1231.59	3.44171E+000	3.44171E+000	-3.55853E-004	...........	-327.56
	491	1234.1	3.44171E+000	3.44172E+000	-3.53987E-004	...........	-327.56
	492	1236.61	3.44171E+000	3.44171E+000	-3.50280E-004	...........	-327.56
	493	1239.12	3.44171E+000	3.44171E+000	-3.51873E-004	...........	-327.56
	494	1241.63	3.44171E+000	3.44169E+000	-3.58620E-004	...........	-327.56
	495	1244.13	3.44171E+000	3.44171E+000	-3.61220E-004	...........	-327.56
	496	1246.64	3.44171E+000	3.44173E+000	-3.55807E-004	...........	-327.56
	497	1249.15	3.44171E+000	3.44170E+000	-3.59593E-004	...........	-327.56
	498	1251.66	3.44171E+000	3.44171E+000	-3.58833E-004	...........	-327.56
	499	1254.17	3.44171E+000	3.44172E+000	-3.55820E-004	...........	-327.56
	500	1256.68	3.44171E+000	3.44171E+000	-3.54900E-004	...........	-327.56
	501	1259.18	3.44171E+000	3.44171E+000	-3.52653E-004	...........	-327.56
	502	1261.69	3.44171E+000	3.44172E+000	-3.57480E-004	...........	-327.56
	503	1264.2	3.44171E+000	3.44171E+000	-3.57140E-004	...........	-327.56
	504	1266.71	3.44171E+000	3.44171E+000	-3.53253E-004	...........	-327.56
	505	1269.22	3.44171E+000	3.44173E+000	-3.56720E-004	...........	-327.56
	506	1271.73	3.44172E+000	3.44173E+000	-3.57833E-004	...........	-327.56
	507	1274.23	3.44172E+000	3.44170E+000	-3.60993E-004	...........	-327.56
	508	1276.74	3.44172E+000	3.44172E+000	-3.57927E-004	...........	-327.56
	509	1279.25	3.44172E+000	3.44171E+000	-3.55593E-004	...........	-327.56
	510	1281.76	3.44172E+000	3.44172E+000	-3.52813E-004	...........	-327.56
	511	1284.27	3.44172E+000	3.44173E+000	-3.55547E-004	...........	-327.56
	512	1286.78	3.44172E+000	3.44171E+000	-3.56073E-004	...........	-327.56
	513	1289.28	3.44172E+000	3.44171E+000	-3.49800E-004	...........	-327.56
	514	1291.79	3.44172E+000	3.44172E+000	-3.54547E-004	...........	-327.56
	515	1294.3	3.44172E+000	3.44172E+000	-3.53480E-004	...........	-327.56
	516	1296.81	3.44172E+000	3.44173E+000	-3.49387E-004	...........	-327.56
	517	1299.32	3.44172E+000	3.44173E+000	-3.54860E-004	...........	-327.56
	518	1301.83	3.44172E+000	3.44172E+000	-3.49673E-004	...........	-327.56
	519	1304.33	3.44172E+000	3.44171E+000	-3.53093E-004	...........	-327.56
	520	1306.84	3.44172E+000	3.44171E+000	-3.51960E-004	...........	-327.56
	521	1309.35	3.44172E+000	3.44171E+000	-3.48680E-004	...........	-327.56
	522	1311.86	3.44172E+000	3.44172E+000	-3.53700E-004	...........	-327.56
	523	1314.37	3.44171E+000	3.44171E+000	-3.53173E-004	...........	-327.56
	524	1316.88	3.44171E+000	3.44172E+000	-3.56193E-004	...........	-327.56
	525	1319.38	3.44171E+000	3.44172E+000	-3.54093E-004	...........	-327.56
	526	1321.89	3.44171E+000	3.44175E+000	-3.53413E-004	...........	-327.56
	527	1324.4	3.44172E+000	3.44174E+000	-3.50287E-004	...........	-327.56
	528	1326.91	3.44173E+000	3.44174E+000	-3.53527E-004	...........	-327.56
	529	1329.42	3.44174E+000	3.44174E+000	-3.48113E-004	...........	-327.56
	530	1331.93	3.44174E+000	3.44175E+000	-3.48213E-004	...........	-327.56
	531	1334.43	3.44174E+000	3.44173E+000	-3.50280E-004	...........	-327.56
	532	1336.94	3.44174E+000	3.44174E+000	-3.54393E-004	...........	-327.56
	533	1339.45	3.44174E+000	3.44174E+000	-3.57360E-004	...........	-327.56
	534	1341.96	3.44174E+000	3.44175E+000	-3.53640E-004	...........	-327.56
	535	1344.47	3.44174E+000	3.44174E+000	-3.54953E-004	...........	-327.56
	536	1346.98	3.44174E+000	3.44172E+000	-3.53293E-004	...........	-327.56
	537	1349.48	3.44174E+000	3.44174E+000	-3.53500E-004	...........	-327.56
	538	1351.99	3.44174E+000	3.44175E+000	-3.54007E-004	...........	-327.56
	539	1354.5	3.44174E+000	3.44174E+000	-3.54567E-004	...........	-327.56
	540	1357.01	3.44174E+000	3.44175E+000	-3.52733E-004	...........	-327.56
	541	1359.52	3.44174E+000	3.44175E+000	-3.56873E-004	...........	-327.56
	542	1362.03	3.44174E+000	3.44173E+000	-3.56773E-004	...........	-327.56
	543	1364.53	3.44174E+000	3.44174E+000	-3.53767E-004	...........	-327.56
	544	1367.04	3.44174E+000	3.44175E+000	-3.54060E-004	...........	-327.56
	545	1369.55	3.44174E+000	3.44176E+000	-3.57833E-004	...........	-327.56
	546	1372.06	3.44174E+000	3.44175E+000	-3.57120E-004	...........	-327.56
	547	1374.57	3.44175E+000	3.44174E+000	-3.55727E-004	...........	-327.56
	548	1377.08	3.44175E+000	3.44175E+000	-3.54220E-004	...........	-327.56
	549	1379.58	3.44175E+000	3.44175E+000	-3.55660E-004	...........	-327.56
	550	1382.09	3.44175E+000	3.44175E+000	-3.57133E-004	...........	-327.56
	551	1384.6	3.44175E+000	3.44176E+000	-3.56027E-004	...........	-327.56
	552	1387.11	3.44175E+000	3.44175E+000	-3.58587E-004	...........	-327.56
	553	1389.62	3.44175E+000	3.44175E+000	-3.56487E-004	...........	-327.56
	554	1392.13	3.44175E+000	3.44176E+000	-3.55580E-004	...........	-327.56
	555	1394.63	3.44175E+000	3.44176E+000	-3.57573E-004	...........	-327.56
	556	1397.14	3.44175E+000	3.44175E+000	-3.58627E-004	...........	-327.56
	557	1399.65	3.44176E+000	3.44174E+000	-3.61547E-004	...........	-327.56
	558	1402.16	3.44176E+000	3.44176E+000	-3.59493E-004	...........	-327.56
	559	1404.67	3.44175E+000	3.44175E+000	-3.60620E-004	...........	-327.56
	560	1407.18	3.44175E+000	3.44175E+000	-3.55613E-004	...........	-327.56
	561	1409.68	3.44175E+000	3.44176E+000	-3.59607E-004	...........	-327.56
	562	1412.19	3.44175E+000	3.44174E+000	-3.56987E-004	...........	-327.56
	563	1414.7	3.44175E+000	3.44175E+000	-3.55733E-004	...........	-327.56
	564	1417.21	3.44175E+000	3.44175E+000	-3.57993E-004	...........	-327.56
	565	1419.72	3.44175E+000	3.44175E+000	-3.56080E-004	...........	-327.56
	566	1422.23	3.44175E+000	3.44176E+000	-3.52407E-004	...........	-327.56
	567	1424.73	3.44175E+000	3.44176E+000	-3.57740E-004	...........	-327.56
	568	1427.24	3.44176E+000	3.44175E+000	-3.54513E-004	...........	-327.56
	569	1429.75	3.44176E+000	3.44176E+000	-3.59433E-004	...........	-327.56
	570	1432.26	3.44176E+000	3.44176E+000	-3.61160E-004	...........	-327.56
	571	1434.77	3.44176E+000	3.44176E+000	-3.60673E-004	...........	-327.56
	572	1437.28	3.44176E+000	3.44176E+000	-3.60613E-004	...........	-327.56
	573	1439.78	3.44176E+000	3.44174E+000	-3.52613E-004	...........	-327.56
	574	1442.29	3.44176E+000	3.44176E+000	-3.62013E-004	...........	-327.56
	575	1444.8	3.44176E+000	3.44176E+000	-3.55553E-004	...........	-327.56
	576	1447.31	3.44175E+000	3.44174E+000	-3.54767E-004	...........	-327.56
	577	1449.82	3.44175E+000	3.44176E+000	-3.57527E-004	...........	-327.56
	578	1452.33	3.44175E+000	3.44176E+000	-3.56093E-004	...........	-327.56
	579	1454.83	3.44175E+000	3.44175E+000	-3.57440E-004	...........	-327.56
	580	1457.34	3.44176E+000	3.44174E+000	-3.56347E-004	...........	-327.56
	581	1459.85	3.44176E+000	3.44175E+000	-3.56153E-004	...........	-327.56
	582	1462.36	3.44175E+000	3.44176E+000	-3.56733E-004	...........	-327.56
	583	1464.87	3.44175E+000	3.44172E+000	-3.57840E-004	...........	-327.56
	584	1467.38	3.44175E+000	3.44173E+000	-3.61653E-004	...........	-327.56
	585	1469.88	3.44174E+000	3.44172E+000	-3.53440E-004	...........	-327.56
	586	1472.39	3.44173E+000	3.44170E+000	-3.55673E-004	...........	-327.56
	587	1474.9	3.44173E+000	3.44173E+000	-3.56947E-004	...........	-327.56
	588	1477.41	3.44172E+000	3.44173E+000	-3.54413E-004	...........	-327.56
	589	1479.92	3.44172E+000	3.44172E+000	-3.52800E-004	...........	-327.56
	590	1482.43	3.44172E+000	3.44174E+000	-3.53867E-004	...........	-327.56
	591	1484.93	3.44172E+000	3.44173E+000	-3.56133E-004	...........	-327.56
	592	1487.44	3.44173E+000	3.44173E+000	-3.53487E-004	...........	-327.56
	593	1489.95	3.44173E+000	3.44173E+000	-3.53240E-004	...........	-327.56
	594	1492.46	3.44173E+000	3.44174E+000	-3.55440E-004	...........	-327.56
	595	1494.97	3.44173E+000	3.44173E+000	-3.56833E-004	...........	-327.56
	596	1497.48	3.44173E+000	3.44172E+000	-3.57500E-004	...........	-327.56
	597	1499.98	3.44173E+000	3.44173E+000	-3.58500E-004	...........	-327.56
	598	1502.49	3.44173E+000	3.44174E+000	-3.56067E-004	...........	-327.56
	599	1505	3.44173E+000	3.44171E+000	-3.53080E-004	...........	-327.56
	600	1507.51	3.44173E+000	3.44174E+000	-3.56540E-004	...........	-327.56
	601	1510.02	3.44173E+000	3.44172E+000	-3.58060E-004	...........	-327.56
	602	1512.53	3.44173E+000	3.44172E+000	-3.60227E-004	...........	-327.56
	603	1515.03	3.44173E+000	3.44175E+000	-3.56147E-004	...........	-327.56
	604	1517.54	3.44173E+000	3.44174E+000	-3.54867E-004	...........	-327.56
	605	1520.05	3.44173E+000	3.44172E+000	-3.51820E-004	...........	-327.56
	606	1522.56	3.44174E+000	3.44173E+000	-3.55900E-004	...........	-327.56
	607	1525.07	3.44174E+000	3.44173E+000	-3.57300E-004	...........	-327.56
	608	1527.58	3.44173E+000	3.44174E+000	-3.59167E-004	...........	-327.56
	609	1530.08	3.44173E+000	3.44171E+000	-3.55400E-004	...........	-327.56
	610	1532.59	3.44173E+000	3.44173E+000	-3.60253E-004	...........	-327.56
	611	1535.1	3.44173E+000	3.44171E+000	-3.58060E-004	...........	-327.56
	612	1537.61	3.44173E+000	3.44173E+000	-3.60913E-004	...........	-327.56
	613	1540.12	3.44172E+000	3.44173E+000	-3.58320E-004	...........	-327.56
	614	1542.63	3.44172E+000	3.44173E+000	-3.57880E-004	...........	-327.56
	615	1545.13	3.44172E+000	3.44173E+000	-3.57580E-004	...........	-327.56
	616	1547.64	3.44173E+000	3.44173E+000	-3.58787E-004	...........	-327.56
	617	1550.15	3.44173E+000	3.44172E+000	-3.56233E-004	...........	-327.56
	618	1552.66	3.44173E+000	3.44172E+000	-3.53880E-004	...........	-327.56
	619	1555.17	3.44173E+000	3.44173E+000	-3.55400E-004	...........	-327.56
	620	1557.68	3.44172E+000	3.44173E+000	-3.54647E-004	...........	-327.56
	621	1560.18	3.44172E+000	3.44173E+000	-3.54720E-004	...........	-327.56
	622	1562.69	3.44173E+000	3.44174E+000	-3.53080E-004	...........	-327.56
	623	1565.2	3.44173E+000	3.44172E+000	-3.53140E-004	...........	-327.56
	624	1567.71	3.44173E+000	3.44173E+000	-3.56680E-004	...........	-327.56
	625	1570.22	3.44173E+000	3.44173E+000	-3.55667E-004	...........	-327.56
	626	1572.73	3.44173E+000	3.44173E+000	-3.58460E-004	...........	-327.56
	627	1575.23	3.44173E+000	3.44175E+000	-3.56627E-004	...........	-327.56
	628	1577.74	3.44173E+000	3.44173E+000	-3.55767E-004	...........	-327.56
	629	1580.25	3.44173E+000	3.44174E+000	-3.56633E-004	...........	-327.56
	630	1582.76	3.44174E+000	3.44172E+000	-3.56233E-004	...........	-327.56
	631	1585.27	3.44174E+000	3.44174E+000	-3.55440E-004	...........	-327.56
	632	1587.78	3.44173E+000	3.44173E+000	-3.55667E-004	...........	-327.56
	633	1590.28	3.44173E+000	3.44173E+000	-3.57933E-004	...........	-327.56
	634	1592.79	3.44173E+000	3.44172E+000	-3.56653E-004	...........	-327.56
	635	1595.3	3.44173E+000	3.44171E+000	-3.58887E-004	...........	-327.56
	636	1597.81	3.44173E+000	3.44172E+000	-3.55447E-004	...........	-327.56
	637	1600.32	3.44172E+000	3.44173E+000	-3.53580E-004	...........	-327.56
	638	1602.83	3.44172E+000	3.44173E+000	-3.59087E-004	...........	-327.56
	639	1605.33	3.44172E+000	3.44172E+000	-3.49940E-004	...........	-327.56
	640	1607.84	3.44172E+000	3.44172E+000	-3.55447E-004	...........	-327.56
	641	1610.35	3.44172E+000	3.44172E+000	-3.55567E-004	...........	-327.56
	642	1612.86	3.44172E+000	3.44172E+000	-3.53733E-004	...........	-327.56
	643	1615.37	3.44172E+000	3.44172E+000	-3.54560E-004	...........	-327.56
	644	1617.88	3.44172E+000	3.44173E+000	-3.54800E-004	...........	-327.56
	645	1620.38	3.44172E+000	3.44171E+000	-3.51820E-004	...........	-327.56
	646	1622.89	3.44172E+000	3.44172E+000	-3.54947E-004	...........	-327.56
	647	1625.4	3.44172E+000	3.44173E+000	-3.54473E-004	...........	-327.56
	648	1627.91	3.44172E+000	3.44173E+000	-3.58387E-004	...........	-327.56
	649	1630.42	3.44172E+000	3.44173E+000	-3.58387E-004	...........	-327.56
	650	1632.93	3.44172E+000	3.44173E+000	-3.55240E-004	...........	-327.56
	651	1635.43	3.44173E+000	3.44173E+000	-3.56813E-004	...........	-327.56
	652	1637.94	3.44173E+000	3.44173E+000	-3.55280E-004	...........	-327.56
	653	1640.45	3.44173E+000	3.44171E+000	-3.53093E-004	...........	-327.56
	654	1642.96	3.44173E+000	3.44173E+000	-3.55767E-004	...........	-327.56
	655	1645.47	3.44173E+000	3.44173E+000	-3.56193E-004	...........	-327.56
	656	1647.98	3.44173E+000	3.44172E+000	-3.55020E-004	...........	-327.56
	657	1650.48	3.44173E+000	3.44172E+000	-3.55167E-004	...........	-327.56
	658	1652.99	3.44173E+000	3.44174E+000	-3.55153E-004	...........	-327.56
	659	1655.5	3.44173E+000	3.44174E+000	-3.54460E-004	...........	-327.56
	660	1658.01	3.44173E+000	3.44174E+000	-3.56560E-004	...........	-327.56
	661	1660.52	3.44173E+000	3.44172E+000	-3.54473E-004	...........	-327.56
	662	1663.03	3.44174E+000	3.44173E+000	-3.57107E-004	...........	-327.56
	663	1665.53	3.44173E+000	3.44174E+000	-3.58040E-004	...........	-327.56
	664	1668.04	3.44173E+000	3.44171E+000	-3.57253E-004	...........	-327.56
	665	1670.55	3.44173E+000	3.44173E+000	-3.57020E-004	...........	-327.56
	666	1673.06	3.44173E+000	3.44171E+000	-3.54760E-004	...........	-327.56
	667	1675.57	3.44172E+000	3.44174E+000	-3.57673E-004	...........	-327.56
	668	1678.08	3.44172E+000	3.44172E+000	-3.56000E-004	...........	-327.56
	669	1680.58	3.44172E+000	3.44174E+000	-3.62747E-004	...........	-327.56
	670	1683.09	3.44173E+000	3.44174E+000	-3.54487E-004	...........	-327.56
	671	1685.6	3.44173E+000	3.44174E+000	-3.55433E-004	...........	-327.56
	672	1688.11	3.44173E+000	3.44174E+000	-3.58267E-004	...........	-327.56
	673	1690.62	3.44174E+000	3.44173E+000	-3.54360E-004	...........	-327.56
	674	1693.13	3.44174E+000	3.44173E+000	-3.54767E-004	...........	-327.56
	675	1695.63	3.44174E+000	3.44173E+000	-3.56107E-004	...........	-327.56
	676	1698.14	3.44174E+000	3.44172E+000	-3.53080E-004	...........	-327.56
	677	1700.65	3.44173E+000	3.44173E+000	-3.56560E-004	...........	-327.56
	678	1703.16	3.44173E+000	3.44171E+000	-3.55280E-004	...........	-327.56
	679	1705.67	3.44173E+000	3.44176E+000	-3.56573E-004	...........	-327.56
	680	1708.18	3.44173E+000	3.44176E+000	-3.55753E-004	...........	-327.56
	681	1710.68	3.44173E+000	3.44172E+000	-3.55260E-004	...........	-327.56
	682	1713.19	3.44174E+000	3.44174E+000	-3.56993E-004	...........	-327.56
	683	1715.7	3.44174E+000	3.44174E+000	-3.56787E-004	...........	-327.56
	684	1718.21	3.44174E+000	3.44173E+000	-3.60240E-004	...........	-327.56
	685	1720.72	3.44174E+000	3.44173E+000	-3.57580E-004	...........	-327.56
	686	1723.23	3.44173E+000	3.44173E+000	-3.55820E-004	...........	-327.56
	687	1725.73	3.44173E+000	3.44172E+000	-3.56493E-004	...........	-327.56
	688	1728.24	3.44173E+000	3.44172E+000	-3.57427E-004	...........	-327.56
	689	1730.75	3.44173E+000	3.44172E+000	-3.58580E-004	...........	-327.56
	690	1733.26	3.44173E+000	3.44172E+000	-3.57800E-004	...........	-327.56
	691	1735.77	3.44172E+000	3.44172E+000	-3.60687E-004	...........	-327.56
	692	1738.28	3.44172E+000	3.44172E+000	-3.57847E-004	...........	-327.56
	693	1740.78	3.44172E+000	3.44173E+000	-3.56373E-004	...........	-327.56
	694	1743.29	3.44172E+000	3.44173E+000	-3.55987E-004	...........	-327.56
	695	1745.8	3.44172E+000	3.44172E+000	-3.55447E-004	...........	-327.56
	696	1748.31	3.44172E+000	3.44173E+000	-3.54567E-004	...........	-327.56
	697	1750.82	3.44173E+000	3.44174E+000	-3.59180E-004	...........	-327.56
	698	1753.33	3.44173E+000	3.44172E+000	-3.58847E-004	...........	-327.56
	699	1755.83	3.44173E+000	3.44174E+000	-3.53947E-004	...........	-327.56
	700	1758.34	3.44173E+000	3.44173E+000	-3.54827E-004	...........	-327.56
	701	1760.85	3.44173E+000	3.44173E+000	-3.55407E-004	...........	-327.56
	702	1763.36	3.44173E+000	3.44172E+000	-3.56627E-004	...........	-327.56
	703	1765.87	3.44173E+000	3.44172E+000	-3.56967E-004	...........	-327.56
	704	1768.38	3.44172E+000	3.44172E+000	-3.57433E-004	...........	-327.56
	705	1770.88	3.44172E+000	3.44171E+000	-3.55787E-004	...........	-327.56
	706	1773.39	3.44172E+000	3.44174E+000	-3.59627E-004	...........	-327.56
	707	1775.9	3.44172E+000	3.44175E+000	-3.56840E-004	...........	-327.56
	708	1778.41	3.44173E+000	3.44173E+000	-3.59000E-004	...........	-327.56
	709	1780.92	3.44173E+000	3.44173E+000	-3.60113E-004	...........	-327.56
	710	1783.43	3.44173E+000	3.44172E+000	-3.57453E-004	...........	-327.56
	711	1785.93	3.44173E+000	3.44174E+000	-3.58547E-004	...........	-327.56
	712	1788.44	3.44173E+000	3.44171E+000	-3.56367E-004	...........	-327.56
	713	1790.95	3.44173E+000	3.44170E+000	-3.56693E-004	...........	-327.56
	714	1793.46	3.44172E+000	3.44171E+000	-3.55900E-004	...........	-327.56
	715	1795.97	3.44171E+000	3.44172E+000	-3.52720E-004	...........	-327.56
	716	1798.48	3.44171E+000	3.44172E+000	-3.53113E-004	...........	-327.56
	717	1800.98	3.44171E+000	3.44175E+000	-3.53967E-004	...........	-327.56
EOC	QUANT	3.441712	Open Circuit (V)
PSTATMODEL	IQUANT	5	Pstat Model
PSTATSECTION	LABEL	REF3000-51199	Pstat Section
PSTATSERIALNO	LABEL	51199	Pstat Serial Number
CTRLMODE	IQUANT	1	Control Mode
ELECTROMETER	IQUANT	0	RE=0 or CS=1
IESTAB	IQUANT	0	I/E Stability
CASPEED	IQUANT	3	Control Amp Speed
CONVENTION	IQUANT	1	Current Convention
ICHRANGE	IQUANT	2	Ich Range
ICHRANGEMODE	TOGGLE	F	Ich Auto Range
ICHOFFSETENABLE	TOGGLE	T	Ich Offset Enable
ICHOFFSET	QUANT	0	Ich Offset (V)
ICHFILTER	IQUANT	3	Ich Filter
VCHRANGE	IQUANT	2	Vch Range
VCHRANGEMODE	TOGGLE	F	Vch Auto Range
VCHOFFSETENABLE	TOGGLE	T	Vch Offset Enable
VCHOFFSET	QUANT	0	Vch Offset (V)
VCHFILTER	IQUANT	3	Vch Filter
ACHRANGE	IQUANT	2	Ach Range
ACHOFFSETENABLE	TOGGLE	F	Ach Offset Enable
ACHOFFSET	QUANT	0	Ach Offset (V)
ACHFILTER	IQUANT	1	Ach Filter
IERANGELOWERLIMIT	IQUANT	2	I/E Range Lower Limit
IERANGEMODE	TOGGLE	F	I/E AutoRange
IERANGE	IQUANT	12	I/E Range
POSFEEDENABLE	TOGGLE	F	Positive Feedback IR Comp
POSFEEDRESISTANCE	QUANT	0	Positive Feedback Resistance (ohm)
ACHSELECT	IQUANT	4	Ach Select
SENSECABLEID	IQUANT	14	Sense Cable ID
PWRCABLEID	IQUANT	7	Power Cable ID
DCCALDATE	LABEL	1/28/2026	DC Calibration Date
ACCALDATE	LABEL	1/28/2026	AC Calibration Date
THERMOSELECT	IQUANT	1	Thermo Select
FRAMEWORKVERSION	LABEL	7.11.0	Framework Version
INSTRUMENTVERSION	LABEL	5.20	Instrument Version
COMMVERSION	LABEL	5.10	Communications Version
CPUPLDVERSION	LABEL	6.00	CPU PLD Version
CTRLPLDVERSION	LABEL	3.21	CTRL PLD Version
PSTATPLDVERSION	LABEL	0.00	PSTAT PLD Version
COMPLIANCEVOLTAGE	IQUANT	0	Compliance Voltage
ZCURVE	TABLE
	Pt	Time	Freq	Zreal	Zimag	Zsig	Zmod	Zphz	ZrealDrCor	ZimagDrCor	ZmodDrCor	ZphzDrCor	Idc	Vdc	IERange	Imod	Vmod	Temp	Ithd	Vthd	IHr1	IHi1	VHr1	VHi1	IHr2	IHi2	VHr2	VHi2	IHr3	IHi3	VHr3	VHi3	IHr4	IHi4	VHr4	VHi4	IHr5	IHi5	VHr5	VHi5	IHr6	IHi6	VHr6	VHi6	IHr7	IHi7	VHr7	VHi7	IHr8	IHi8	VHr8	VHi8	IHr9	IHi9	VHr9	VHi9	IHr10	IHi10	VHr10	VHi10
	#	s	Hz	ohm	ohm	V	ohm	deg	ohm	ohm	ohm	deg	A	V	#	A	V	degC	#	#	A	A	V	V	A	A	V	V	A	A	V	V	A	A	V	V	A	A	V	V	A	A	V	V	A	A	V	V	A	A	V	V	A	A	V	V	A	A	V	V
	0	1	10078.13	0.0341321	0.0250867	1	0.0423596	36.31544	0.0341321	0.0250867	0.0423596	36.31544	-0.0743782	3.43811	12	0.2069921	0.0087667	-327.5556	0.1309947	0.23543	-7.435321	17.19617	-0.6829943	0.4038792	1.028383	1.353406	-0.0293903	0.0999148	1.518764	-0.5414164	0.0973489	0.0900143	0.0385662	0.6727074	-0.0629343	0.0313613	0.2252691	0.0930984	-0.0007548	0.0304837	-0.0713931	0.0910707	-0.0161579	-0.0058986	0.0108282	0.0332301	-0.0051802	0.0036151	0.0466296	-0.0126004	0.0046456	0.0079788	-0.0076315	0.0377986	-0.0082188	0.0002615	0.0370052	0.0243841	-0.0032844	0.009866
	1	3	8015.625	0.0338959	0.0199493	1	0.0393307	30.47875	0.0338959	0.0199493	0.0393307	30.47875	-0.0721419	3.438099	12	0.3211697	0.0126306	-327.5556	0.104219	0.1915404	23.29037	-17.39435	1.135815	-0.1296253	-0.5963414	1.169641	-0.0677358	0.0180941	-0.718833	-2.356514	0.1123621	-0.1287711	-0.7082144	-0.4065077	0.0036103	-0.0706444	0.7172481	-0.1146127	0.0411069	0.0634754	0.2375383	-0.2986037	0.0442336	0.0140796	-0.0111562	0.1742014	-0.0236397	0.0067663	0.0733843	0.0883701	-0.009402	0.0150163	-0.0246868	-0.0117323	0.000598	-0.0045751	0.0099928	-0.0072336	0.0019999	0.0015795
	2	5	6328.125	0.0336912	0.0155758	1	0.0371174	24.81162	0.0336912	0.0155758	0.0371174	24.81162	-0.0699011	3.438103	12	0.3049662	0.0113188	-327.5556	0.1060231	0.1736596	14.08193	23.74007	0.1079664	1.01876	0.8857973	-0.9468499	0.0607381	-0.005275	-2.364535	-0.1729574	-0.0761036	-0.1169374	-0.4494016	-0.660149	0.0236475	-0.0526469	-0.2612751	0.6278788	-0.0580533	0.0050659	-0.3450868	0.0989554	-0.0228413	-0.0273376	0.1077636	0.1094328	-0.0070963	0.0159914	-0.0032892	0.0917339	-0.0112641	0.0036849	0.0191576	-0.0024299	0.0012562	0.0024557	-0.0186409	-0.0196047	0.0021505	-0.0037038
	3	7	5015.625	0.0335781	0.0121056	1	0.0356936	19.8252	0.0335781	0.0121056	0.0356936	19.8252	-0.0669326	3.438156	12	0.3225273	0.0115117	-327.5556	0.1015959	0.1520144	7.789964	-28.13325	0.5999272	-0.8518733	0.7541866	0.9052718	0.0034708	0.049964	-2.027844	1.373381	-0.1219633	-0.027955	0.3617827	0.6918858	-0.0210323	0.0430527	-0.7426325	0.2036608	-0.04072	-0.0375955	0.0575522	0.3815495	-0.0255361	0.0189144	-0.1989322	-0.0256545	-0.0057013	-0.0178571	-0.0196484	0.1255314	-0.0128299	0.0031705	-0.0253736	-0.0187804	0.0008671	-0.003534	0.016811	0.0054495	0.0002217	0.0022094
	4	9	3984.375	0.0335455	0.0092964	1	0.0348098	15.48954	0.0335455	0.0092964	0.0348098	15.48954	-0.0661457	3.438121	12	0.3236969	0.0112675	-327.5556	0.0996514	0.1356934	28.33585	7.445436	0.882349	0.5113657	-0.6630553	-0.9083027	-0.0046413	-0.0440478	1.299759	2.030774	-0.0158565	0.1085227	0.3748884	0.6891054	-0.0137665	0.0391152	-0.2415006	-0.7418139	0.0273912	-0.0389123	-0.0922366	-0.3846847	0.0191109	-0.0196914	-0.0019359	0.2100467	-0.0142016	0.0077116	-0.0005902	0.1397177	-0.0106623	0.0055575	0.0146619	-0.0295094	0.0032551	-2.014637E-005	-0.0179536	-0.0132959	0.0004525	-0.0024514
	5	10	3170.956	0.0335778	0.0070173	1	0.0343032	11.8041	0.0335778	0.0070173	0.0343032	11.8041	-0.0658057	3.438071	12	0.3227762	0.0110721	-327.5556	0.0969673	0.1216744	-18.713	-22.43441	-0.4723445	-0.8838306	0.6918731	-0.8078806	0.035975	-0.0167189	2.277327	-0.4901867	0.0888627	0.0374861	-0.7073998	-0.3440799	-0.0137833	-0.0342312	-0.25823	-0.7327028	0.0194812	-0.0362051	-0.138364	0.3909301	-0.0232159	0.0076995	-0.1985852	0.0788856	-0.0116334	-0.0078464	0.1538714	0.0289239	0.0040412	0.0105357	0.012944	0.0358672	-0.0019305	0.0022573	-0.0254014	-0.0228817	0.000598	-0.0029261
	6	12	2527.573	0.0336808	0.0051465	1	0.0340718	8.687759	0.0336808	0.0051465	0.0340718	8.687759	-0.0640551	3.438091	12	0.3186131	0.0108556	-327.5556	0.0937393	0.1098858	26.87921	-10.44573	0.958786	-0.2147284	-0.96926	0.1069146	-0.0339241	-0.0081437	1.654849	-1.47149	0.0833496	-0.0183218	0.1826989	-0.7502969	0.0251132	-0.0211403	0.1922427	0.7484434	-0.0166478	0.0323639	0.3171997	0.2806534	0.0007026	0.0218276	-0.2082733	-0.0645971	-0.0045581	-0.0113736	-0.155993	0.0664391	-0.0090005	-0.005336	0.0313256	-0.0240245	0.0025518	0.000947	-0.0274444	-0.0349224	0.0012159	-0.003037
	7	14	1976.103	0.0338427	0.0034778	1	0.0340209	5.867272	0.0338427	0.0034778	0.0340209	5.867272	-0.0624572	3.438114	12	0.314996	0.0107164	-327.5556	0.0887527	0.0982662	1.141331	28.48733	-0.0594641	0.968112	0.6833221	0.5381112	0.0179915	0.0242226	0.7358748	-1.918785	0.0526388	-0.0535685	0.7469434	0.053041	0.0243828	0.0162146	-0.087389	-0.7555003	0.0155355	-0.0282125	0.4024702	-0.1681479	0.0189469	0.0060599	-0.1126201	-0.1995622	0.0029876	-0.0107999	0.1178513	-0.1476069	0.0098724	-0.000731	-0.035337	-0.0302486	-7.653237E-005	-0.0026428	-0.0179883	-0.0536564	0.0019689	-0.0029402
	8	16	1577.524	0.0340544	0.0022071	1	0.0341258	3.70824	0.0340544	0.0022071	0.0341258	3.70824	-0.0618595	3.438089	12	0.3078524	0.0105057	-327.5556	0.083607	0.0888443	14.62558	-23.71653	0.5497797	-0.7758137	-0.3082427	0.7217228	-0.015316	0.0223044	-1.449281	-1.16381	-0.0351005	-0.0554161	-0.5933226	0.4133388	-0.0264328	0.00475	-0.1645771	-0.7097494	0.0082185	-0.0274143	-0.4484899	-0.0343486	-0.0145845	-0.0117729	0.1138379	-0.1947753	0.0092778	-0.0036864	-0.1549483	-0.135788	-0.0011265	-0.0094702	0.0449439	-0.0107166	0.0019956	0.0012136	-0.0382807	-0.0571219	0.0008409	-0.0036345
	9	18	1265.625	0.0343055	0.0011686	1	0.0343254	1.950976	0.0343055	0.0011686	0.0343254	1.950976	-0.061242	3.438073	12	0.303301	0.0104109	-327.5556	0.0765954	0.0788989	5.306623	26.93388	0.151176	0.9300826	0.5423647	0.3693085	0.0165367	0.0152614	0.1790287	-1.634937	0.0204537	-0.053014	0.6518174	-0.2458799	0.0248159	-0.0002058	-0.4607273	-0.5170109	-0.0074937	-0.0246823	0.1749498	-0.4217292	0.0138771	-0.0110579	-0.2271725	-0.0161738	-0.0073254	-0.0055653	-0.0998191	-0.202186	0.0016741	-0.0094011	-0.0397047	0.0297672	-0.0021379	-0.0001013	-0.084178	0.0007382	-0.0029526	-0.0026145
	10	20	998.264	0.0346156	0.0002167	1	0.0346163	0.3587002	0.0346156	0.0002167	0.0346163	0.3587002	-0.0608816	3.438046	12	0.2975806	0.0103011	-327.5556	0.0690004	0.0693857	-23.51586	13.13166	-0.8166308	0.4498825	-0.5359674	-0.0197884	-0.0181577	-0.0025158	-1.069641	0.9380302	-0.0420716	0.0243753	0.0625016	-0.6330771	0.0078718	-0.0207045	-0.3692806	-0.5223167	-0.0062132	-0.0221565	0.4459533	0.0899155	0.0137863	0.0093949	0.1981168	-0.1001482	0.0085781	8.106232E-005	-0.0671536	0.233421	-0.0068977	0.0064247	0.0105535	0.0485147	-0.0007372	0.0021274	-0.1015155	-0.0167551	-0.0030355	-0.0031023
	11	21	796.875	0.0349593	-0.0005599	1	0.0349638	-0.9176015	0.0349593	-0.0005599	0.0349638	-0.9176015	-0.0585234	3.438114	12	0.2919393	0.0102073	-327.5556	0.0612015	0.0602302	-20.96394	16.08432	-0.7236432	0.5743303	-0.423969	0.084852	-0.0147473	0.0019233	-0.6066365	1.047231	-0.0252383	0.0323558	-0.1921287	-0.5110645	-0.0028708	-0.0185536	-0.555461	-0.2097154	-0.0167198	-0.0121522	0.3662685	-0.2194295	0.0148636	-0.003293	0.0481684	-0.2242318	0.0045178	-0.0069669	0.1673947	0.1836332	0.0028067	0.0087996	0.0560578	0.0042324	0.0017426	0.0011451	-0.0551084	0.1002888	-0.0039741	0.0023136
	12	23	627.7902	0.0353658	-0.0012671	1	0.0353885	-2.051968	0.0353658	-0.0012671	0.0353885	-2.051968	-0.0582222	3.438098	12	0.287166	0.0101624	-327.5556	0.0529316	0.0513903	6.398364	25.19144	0.2584884	0.882725	0.2782897	0.2223565	0.0093105	0.0079291	0.2705507	-0.958755	0.012449	-0.0315249	0.462731	-0.0852978	0.0160925	-0.0006576	-0.2990219	-0.4267339	-0.0071185	-0.0165766	0.1820507	-0.3501588	0.0092106	-0.010246	-0.2114187	-0.0138794	-0.0070952	-0.0026195	-0.1075506	-0.2224695	-0.0007229	-0.0087998	-0.039001	0.0401514	-0.0019155	0.0008223	-0.1247874	-0.0101974	-0.0040466	-0.0023236
	13	25	505.5147	0.0357918	-0.0018267	1	0.0358384	-2.921729	0.0357918	-0.0018267	0.0358384	-2.921729	-0.0569806	3.438119	12	0.2821493	0.0101118	-327.5556	0.0459346	0.0438984	24.17289	8.23541	0.8803	0.250374	0.0910592	-0.2750532	0.0032762	-0.0095103	-0.4123823	0.7175593	-0.0155168	0.0235941	-0.2462806	0.3154483	-0.0095141	0.0098696	0.3358683	-0.3057935	0.0129395	-0.0084902	0.2876456	-0.2100004	0.0111122	-0.0052298	-0.1770425	0.0874123	-0.0066421	0.0016048	-0.2194028	0.085863	-0.0081329	0.0007792	0.0551038	-0.0102804	0.0019438	0.0002558	0.1243492	-0.0267027	0.0044353	0.0005255
	14	26	397.9953	0.0363109	-0.0023747	1	0.0363884	-3.741757	0.0363109	-0.0023747	0.0363884	-3.741757	-0.056483	3.438115	12	0.2771101	0.0100836	-327.5556	0.0387326	0.036548	-22.5815	-10.91512	-0.8459438	-0.3425406	0.1360896	-0.1906274	0.004672	-0.0067718	0.5545921	-0.3722251	0.0194806	-0.0121174	-0.3128929	0.099954	-0.0109296	0.0026932	-0.3793618	0.0001884	-0.0129216	-0.0015013	0.2965667	0.0795807	0.0097172	0.0040529	0.1431372	0.0911049	0.0042906	0.0037923	-0.1545662	-0.1588531	-0.0040309	-0.0063568	-0.020035	-0.0472283	-0.0003495	-0.0016761	0.038301	0.1210075	0.0001981	0.004406
	15	28	315.5048	0.0368693	-0.0028339	1	0.0369781	-4.395261	0.0368693	-0.0028339	0.0369781	-4.395261	-0.0561204	3.438097	12	0.2718287	0.0100517	-327.5556	0.0323624	0.0302165	-16.83342	-17.94296	-0.671584	-0.613732	0.1830853	-0.0353349	0.0065532	-0.0016158	0.4422224	0.2959033	0.0152377	0.0103915	-0.0849801	-0.2608992	-0.0025745	-0.0091178	0.118204	-0.2912223	0.004696	-0.0095804	-0.2242887	0.1329282	-0.0080369	0.0038037	-0.1413699	-0.0210852	-0.0047476	-0.0012321	0.1371561	0.1363328	0.0038927	0.005263	0.0022987	0.0432378	-0.0002456	0.0015172	0.0519167	-0.1078304	0.0025821	-0.0033751
	16	30	252.4038	0.0374478	-0.0032182	1	0.0375858	-4.911825	0.0374478	-0.0032182	0.0375858	-4.911825	-0.0549242	3.438128	12	0.2668447	0.0100296	-327.5556	0.0269926	0.0250031	-23.47243	5.689054	-0.860644	0.2886926	-0.0987224	-0.1146225	-0.0037692	-0.0038986	-0.3454657	-0.2530035	-0.0123051	-0.008682	0.2138122	0.0549026	0.0074326	0.0018797	0.2605331	-0.0191376	0.0089515	-7.152558E-005	-0.1929853	0.0948541	-0.0069206	0.0027995	-0.0850454	0.0893845	-0.0031035	0.0026433	0.0573736	-0.1563551	0.0024679	-0.0051372	0.0019405	-0.0397316	0.0003088	-0.0014474	0.0470963	0.0937624	0.0011656	0.0034158
	17	31	198.6229	0.0381191	-0.0035672	1	0.0382857	-5.346111	0.0381191	-0.0035672	0.0382857	-5.346111	-0.0555269	3.438071	12	0.261715	0.0100199	-327.5556	0.0219255	0.0201138	-14.36664	-18.83371	-0.6148947	-0.6666144	0.1207436	0.0063828	0.0043719	-6.949903E-005	0.1747305	0.2846014	0.0065594	0.0099833	0.0458697	-0.1745984	0.0014801	-0.0060973	0.1806696	-0.0909582	0.0062649	-0.0031865	-0.1698037	-0.0556972	-0.0059692	-0.0020132	-0.042472	-0.0894458	-0.001245	-0.0030613	-0.0458476	0.1318327	-0.0017483	0.0042801	-0.0232991	0.0117005	-0.0007575	0.0003476	0.0854786	0.0296611	0.0028479	0.0011725
	18	33	158.3615	0.0388039	-0.0038431	1	0.0389937	-5.656037	0.0388039	-0.0038431	0.0389937	-5.656037	-0.0539896	3.43812	12	0.2566444	0.0100075	-327.5556	0.0178931	0.0162426	-20.51781	-10.8902	-0.8380505	-0.3436625	0.0669	-0.0680194	0.0023146	-0.00261	0.2584393	-0.0555956	0.0091457	-0.0023744	-0.1382279	-0.0236586	-0.0050051	-0.0007908	-0.1364194	-0.0945283	-0.0047482	-0.0032165	0.0810821	0.1183667	0.0028583	0.0040586	0.0149676	0.076546	0.0004954	0.0026736	0.0204065	-0.1151778	0.0009109	-0.0039775	0.0129252	-0.0204778	0.0005841	-0.000782	-0.0580343	0.0474442	-0.0020995	0.001543
	19	35	125.558	0.039538	-0.0040559	1	0.0397455	-5.857103	0.039538	-0.0040559	0.0397455	-5.857103	-0.0531865	3.438132	12	0.251609	0.0100003	-327.5556	0.0143048	0.0128179	0.4929321	22.76771	0.111892	0.8981838	0.0173423	0.0752225	0.0009451	0.0027421	0.2027777	-0.0263964	0.0073366	-0.0013255	0.027469	0.1093355	0.0011315	0.0037712	0.1243504	-0.0393022	0.0043135	-0.0013723	0.0444399	0.102465	0.0015855	0.003597	0.0543387	-0.0321595	0.0018277	-0.0009894	0.0536403	0.0740573	0.0018276	0.0026631	0.0134317	-0.0128185	0.000496	-0.0002909	0.0457511	0.0370073	0.0015302	0.0013189
	20	36	100.4464	0.040293	-0.0041989	1	0.0405112	-5.949314	0.040293	-0.0041989	0.0405112	-5.949314	-0.0535581	3.438089	12	0.2468468	0.0100001	-327.5556	0.0116161	0.0104294	-22.28898	-1.5387	-0.9045495	0.0316377	-0.0046186	-0.0604374	-0.0002427	-0.002214	0.028313	-0.1590926	0.0005968	-0.0059345	-0.0146463	0.090532	-0.0002551	0.0033237	-0.0211889	0.1018882	-0.0006583	0.0037668	0.0171668	-0.0886549	0.0004852	-0.0030882	0.0100368	-0.0469783	0.0004435	-0.0016158	-0.0141397	0.0714127	-0.0004464	0.0025647	-0.0028796	0.0138645	-9.393693E-005	0.0003328	0.0084754	-0.0478926	0.0002442	-0.0018175
	21	38	79.00281	0.041128	-0.0042652	1	0.0413486	-5.920691	0.041128	-0.0042652	0.0413486	-5.920691	-0.05254	3.438115	12	0.241647	0.0099918	-327.5556	0.0091242	0.0080159	-3.596452	21.57367	-0.0558627	0.9026233	-0.005304	0.0472787	-0.0000958	0.001863	0.1084116	0.0603835	0.0041139	0.0018723	-0.0396363	0.0582036	-0.0012994	0.0022829	0.0604059	0.0536786	0.0022583	0.0018892	-0.0511841	0.0481797	-0.0017185	0.0018172	0.021232	0.0303938	0.0007706	0.0010948	-0.0474911	0.0258992	-0.0016195	0.0009367	0.0014333	0.0085083	2.229214E-005	0.0001268	-0.0348122	0.0119988	-0.0011895	0.0003045
	22	40	63.3446	0.0418972	-0.0042447	1	0.0421117	-5.784978	0.0418972	-0.0042447	0.0421117	-5.784978	-0.0521556	3.43811	12	0.2371206	0.0099855	-327.5556	0.0072796	0.0068046	-7.841147	-19.97803	-0.4133483	-0.8037269	0.0325164	0.0226797	0.0014198	0.0007322	-0.0474155	0.0860474	-0.0016696	0.0037285	0.0542121	0.0006567	0.0022249	-0.0001376	0.021866	0.0595086	0.0011129	0.0020657	0.0378293	-0.0363834	0.0012081	-0.0014727	0.0255772	0.0102894	0.0009218	0.0004203	-5.625189E-005	-0.0427011	-0.0001042	-0.0015266	0.0075408	-0.0037687	0.0002741	-0.0001831	-0.0218821	-0.0183766	-0.000849	-0.0005283
	23	42	49.86702	0.04271	-0.0041331	1	0.0429095	-5.52739	0.04271	-0.0041331	0.0429095	-5.52739	-0.0519252	3.438098	12	0.2323979	0.0099726	-327.5556	0.005802	0.0051617	-3.926735	-20.66448	-0.253187	-0.8663802	0.0210928	0.0233635	0.0008533	0.0009375	-0.0654792	0.0388895	-0.0024168	0.0017349	0.0309886	0.0306	0.0012691	0.0010605	-0.0249133	0.0409376	-0.0008173	0.0016193	0.0387173	0.0183112	0.001482	0.0005832	-0.0035083	0.0181875	-6.604196E-005	0.0007043	0.0340453	-0.0033075	0.0011944	-0.0002036	0.0007393	0.0042379	3.558397E-005	0.000195	0.0198995	-0.0121798	0.0006589	-0.0004947
	24	44	39.72458	0.0434451	-0.0039357	1	0.043623	-5.176308	0.0434451	-0.0039357	0.043623	-5.176308	-0.0509254	3.438122	12	0.227636	0.0099305	-327.5556	0.0045827	0.0040515	19.29211	-7.23248	0.8096912	-0.3901966	-0.0235352	-0.0091135	-0.0009739	-0.0003603	0.0519231	0.0293523	0.0021408	0.0010136	0.0338617	0.005118	0.0013199	0.0001342	-0.0340198	0.0124543	-0.0011787	0.0005656	-0.0272686	0.0174569	-0.0009911	0.0007596	0.0072437	-0.0127142	0.0002801	-0.0004611	0.005705	-0.0254692	7.939339E-005	-0.0009469	0.0009767	0.0041968	3.123283E-005	0.0001575	0.0106633	0.012613	0.0003741	0.0004284
	25	45	31.6723	0.0441102	-0.0036694	1	0.0442625	-4.755262	0.0441102	-0.0036694	0.0442625	-4.755262	-0.0514816	3.438078	12	0.2225834	0.0098523	-327.5556	0.0035715	0.0032542	17.06091	-10.71377	0.7132418	-0.5352278	-0.0216815	-0.0008855	-0.0008905	-3.761054E-005	0.0459389	-0.0027367	0.0018818	-0.00028	0.0193173	-0.0168289	0.0007756	-0.0007086	-0.0050004	0.0221061	-0.0001748	0.000931	0.0049725	0.0281757	0.0002968	0.0010108	-0.0070998	-0.0075353	-0.0003119	-0.0002873	-0.0191107	-0.0020303	-0.0007055	-7.963182E-005	0.0014764	0.000362	6.103516E-005	-8.177758E-005	0.0067289	-0.0086957	0.0001838	-0.0004102
	26	47	24.93351	0.0447268	-0.0033289	1	0.0448505	-4.256507	0.0447268	-0.0033289	0.0448505	-4.256507	-0.0512485	3.438073	12	0.2149656	0.0096414	-327.5556	0.0027301	0.0024586	-6.160685	18.45535	-0.2140896	0.845975	0.0002658	0.0169958	3.218651E-005	0.0007048	0.019355	0.0281619	0.0009034	0.001112	-0.0193536	0.0050127	-0.0007343	0.0002719	-0.0029557	0.0153838	-4.053117E-005	0.000591	-0.0192846	-0.0069664	-0.0007553	-0.0001687	-0.0043251	0.0041745	-0.0001402	0.0001929	-0.0078388	-0.0120605	-0.0003276	-0.000456	-0.0014959	-0.0008587	-6.461144E-005	-2.074242E-005	0.0013184	-0.0071836	-5.483628E-006	-0.0003361
	27	49	19.86229	0.0452242	-0.0029858	1	0.0453227	-3.777246	0.0452242	-0.0029858	0.0453227	-3.777246	-0.049929	3.438131	12	0.2381513	0.0107937	-327.5556	0.0020411	0.0018808	1.236951	-21.51948	-0.0083349	-0.976903	0.0078122	0.0119481	0.0004022	0.0005299	-0.0258506	-0.0053964	-0.0011232	-0.0002762	-0.0041838	0.0126728	-0.0001369	0.000548	-0.0166527	-0.0053668	-0.0006654	-0.0001655	-0.0081572	0.0147604	-0.0002372	0.0005853	-0.0053118	-0.0029721	-0.0002143	-0.0001242	-0.0062338	0.0113896	-0.0001993	0.0004522	-0.0005254	-0.0024393	-8.940698E-005	-0.0001669	-0.0023307	0.0069738	-0.0001328	0.0002204
	28	50	15.83615	0.0456293	-0.0026504	1	0.0457062	-3.324335	0.0456293	-0.0026504	0.0457062	-3.324335	-0.0501594	3.438104	12	0.2188307	0.010002	-327.5556	0.0017523	0.0014635	1.108566	-19.77525	-0.0018466	-0.9052744	0.0094113	0.0076449	0.0003095	0.0002137	-0.0234033	-0.0041158	-0.0008972	-0.0002512	-0.0032093	0.0095311	-2.360344E-005	0.0004508	-0.0116629	-0.0057978	-0.0004776	-0.0001589	-0.0035075	0.0095191	-0.0001032	0.0003628	-0.0040166	-0.0019461	-0.0001743	-0.0000962	-0.004155	0.0075344	-7.414819E-005	0.0002961	-0.002557	-0.000943	-6.127358E-005	-1.013279E-005	-0.0027569	0.0031852	-6.91414E-005	7.116795E-005
	29	52	12.40079	0.0459833	-0.0022809	1	0.0460398	-2.839658	0.0459833	-0.0022809	0.0460398	-2.839658	-0.0506472	3.438071	12	0.2168635	0.0099844	-327.5556	0.0018484	0.001619	1.051395	-19.60007	0.0036283	-0.9036765	0.0105442	0.0185346	0.0003352	0.0007653	-0.0152067	0.0019171	-0.0007057	0.0001499	-0.0034686	0.0146077	-8.988381E-005	0.0005555	-0.006522	0.0032713	-0.0003145	5.871058E-005	-0.0022262	0.0117547	-4.911424E-005	0.0005493	-0.0021949	-0.0006847	-6.628037E-005	-3.743173E-005	-0.004948	0.0106605	-0.0001037	0.000338	0.0011609	0.0028903	5.483627E-005	9.214878E-005	-0.0042996	0.0057648	-0.0001385	0.0001935
	30	54	9.93114	0.0462325	-0.0019839	1	0.046275	-2.457116	0.0462325	-0.0019839	0.046275	-2.457116	-0.0491685	3.438129	12	0.2162957	0.0100091	-327.5556	0.0012308	0.0010419	0.992787	-19.55166	0.0071001	-0.9058934	0.0099894	0.0084819	0.0003066	0.000289	-0.0124572	0.0006259	-0.0005684	-1.317263E-005	-0.0025365	0.0080416	-8.702279E-005	0.0002776	-0.0078575	-0.0002536	-0.0003021	-0.0001049	-0.0033727	0.0074124	-6.556512E-005	0.0003274	-0.0030289	-0.0001087	-0.000113	-1.811981E-005	-0.0026745	0.0044522	-8.773805E-005	0.0002183	-0.0003767	0.0011049	-7.200242E-005	5.817413E-005	-0.0023184	0.0033419	-8.821488E-005	8.34465E-005
	31	56	7.944915	0.0464251	-0.0017164	1	0.0464569	-2.117283	0.0464251	-0.0017164	0.0464569	-2.117283	-0.0480302	3.438171	12	0.2151159	0.0099936	-327.5556	0.0011934	0.0010582	0.9391169	-19.44741	0.0102115	-0.904462	0.0103605	0.011106	0.0003858	0.0003862	-0.0102711	0.0020766	-0.0004351	0.0001392	-0.0015358	0.0072679	-6.294251E-005	0.0003764	-0.006427	0.0004641	-0.0002563	-2.527237E-005	-0.0013964	0.0058239	-1.525879E-005	0.0002987	-0.0033727	0.0003774	-0.0001364	-1.263619E-005	-0.0021869	0.005437	-9.202958E-005	0.0002347	0.0004934	-0.0015793	-2.241135E-005	-3.230573E-005	-0.0014281	0.0040228	-8.606912E-005	0.0001295
	32	57	6.317385	0.0465875	-0.0014789	1	0.046611	-1.818209	0.0465865	-0.0014791	0.04661	-1.81848	-0.0483211	3.438143	12	0.2147578	0.0100101	-327.5556	0.0007973	0.0006902	0.8901238	-19.41727	0.0127459	-0.9059202	0.009278	0.0019287	0.0003703	2.595782E-005	-0.0082792	-0.00099	-0.0004003	-6.02007E-005	4.706159E-005	0.004812	-4.148484E-005	0.0001293	-0.0042807	-0.0008987	-0.0001588	-5.662442E-005	-0.0020717	0.0039038	-7.82013E-005	0.0001056	-0.0014977	-0.001097	-0.0000968	-5.435945E-005	-0.0011354	0.0033083	-1.239777E-005	0.0001054	-0.0005809	0.0013589	-4.529954E-006	3.421307E-005	-0.0006577	0.0008711	-9.298326E-006	1.91927E-005
	33	60	5.008013	0.0467157	-0.0012793	1	0.0467332	-1.568669	0.046713	-0.0012773	0.0467304	-1.566305	-0.0475384	3.438163	12	0.2140205	0.0100019	-327.5556	0.000789	0.0006004	0.8568116	-19.35197	0.0152638	-0.9051376	0.0115775	0.0036788	0.000319	0.0001499	-0.0061139	-0.0016489	-0.0002811	-8.779765E-005	-0.0006332	0.0033605	-3.719331E-005	0.0001508	-0.0031319	-0.0012643	-0.0001376	-5.275012E-005	-0.0011496	0.0032983	-3.862382E-005	0.0001355	-0.0013097	-0.0013373	-6.556512E-005	-7.879735E-005	-0.000966	0.0019286	-2.956391E-005	8.094311E-005	-0.0001013	-0.0007494	-1.740456E-005	-1.525879E-005	-8.42847E-005	0.0013658	-1.168251E-005	1.263619E-005
	34	63	3.945707	0.0468194	-0.0011166	1	0.0468327	-1.366217	0.0468126	-0.0011157	0.0468259	-1.365324	-0.0473091	3.438164	12	0.2138937	0.0100172	-327.5556	0.0007382	0.0007129	0.8079474	-19.34258	0.0162251	-0.9065109	0.0094465	-0.0059297	0.0003147	-0.0003306	-0.0046787	-0.0056213	-0.0001812	-0.0003052	-5.807356E-005	-0.0010599	2.0504E-005	-4.60148E-005	-0.0014818	-0.0040046	-7.486344E-005	-0.0002136	-0.0003349	0.0005903	3.862381E-005	-1.728535E-006	-0.0007497	-0.001994	-2.932549E-005	-0.0001218	-0.0001125	-0.0001683	2.336502E-005	-2.217293E-005	0.0005457	-0.0012288	-4.529954E-006	-5.841256E-005	-0.0002881	-0.0002195	1.907349E-006	-8.940698E-005
	35	65	3.158693	0.0468934	-0.0009857	1	0.0469037	-1.204128	0.0468892	-0.0009848	0.0468995	-1.203152	-0.0470724	3.438155	12	0.212843	0.0099831	-327.5556	0.0006902	0.000523	0.7861723	-19.2483	0.0178907	-0.9033929	0.0115794	-0.0009893	0.0004015	-3.474952E-005	-0.0036874	0.0012038	-0.0001473	-2.717972E-005	-0.0002117	0.0029659	2.813339E-005	7.891655E-005	-0.0019875	-0.0009613	-6.604196E-005	-7.086993E-005	-0.0006038	0.0026494	7.390976E-006	0.0001063	-0.0013265	-0.0001163	-4.48227E-005	-4.589559E-005	-0.0007444	0.0014735	-4.315377E-005	6.556511E-005	0.0001081	-3.63011E-005	-1.621246E-005	-9.775163E-006	0.0003741	0.0009675	-7.629396E-006	-7.152558E-006
	36	69	2.504006	0.0469652	-0.0008935	1	0.0469737	-1.089851	0.0469625	-0.0008946	0.0469711	-1.091275	-0.0466003	3.438157	12	0.2129307	0.0100021	-327.5556	0.0004929	0.0003309	0.7832932	-19.25637	0.0195801	-0.9050787	0.0086473	0.0011146	0.0002215	-9.328128E-006	-0.0012541	0.0001679	-5.50747E-005	-9.214879E-005	-0.0011702	0.0008856	-6.53267E-005	1.049042E-005	-0.0023593	-0.0008517	-8.130075E-005	-8.785726E-005	-0.0009287	0.0004537	-1.955032E-005	1.370907E-006	-0.0004711	-0.0004935	-1.907349E-005	-6.175042E-005	-0.0008261	0.0009316	-6.198884E-006	4.947186E-005	-0.0002046	-0.0008863	2.861023E-006	-4.48227E-005	0.0002226	0.0004578	6.437302E-006	-3.564359E-005
	37	73	1.998082	0.0470224	-0.0008296	1	0.0470297	-1.010697	0.0470163	-0.0008295	0.0470236	-1.010744	-0.045954	3.438174	12	0.212661	0.0100014	-327.5556	0.0005627	0.0004419	0.7560858	-19.23303	0.0195959	-0.9050096	0.0050802	0.0048728	6.866455E-005	0.0001414	-0.0052595	-0.0030519	-0.0002117	-0.0001691	-0.0032161	0.0034474	-0.0001378	0.0001481	-0.0012217	4.084222E-005	-7.128717E-005	-5.483628E-005	-0.0006518	0.0017215	-3.83854E-005	8.773804E-005	-0.0001443	0.0001704	8.583069E-006	-2.956391E-005	-0.0008983	0.0013322	-1.66893E-005	4.124641E-005	-9.065495E-005	-0.0005156	-2.861023E-006	-2.384186E-005	-0.0005138	0.0007123	-1.40667E-005	1.072884E-006
	38	78	1.584686	0.0470864	-0.0007865	1	0.047093	-0.956911	0.0470772	-0.0007858	0.0470837	-0.956309	-0.0458751	3.43816	12	0.2120423	0.0099857	-327.5556	0.0014971	0.0013076	0.7090793	-19.17878	0.0183027	-0.9036177	0.0281692	0.0004999	0.001153	-0.0001329	0.0035041	0.0021741	0.0001588	8.940697E-007	0.0006155	0.0016335	1.931191E-005	3.045797E-005	-0.0024405	0.0016399	-0.0001256	2.086163E-006	0.0009246	0.0008257	6.437302E-005	1.078844E-005	-0.0007538	-7.214026E-006	-2.336502E-005	-2.968311E-005	0.0001037	0.0008196	1.335144E-005	2.980232E-005	0.0002075	-5.945751E-005	1.549721E-005	-9.059907E-006	5.193427E-005	0.0004429	8.34465E-006	-1.490116E-005
	39	83	1.266892	0.0471307	-0.0007725	1	0.047137	-0.9390054	0.0471233	-0.0007749	0.0471297	-0.9420525	-0.045057	3.438178	12	0.2123018	0.0100073	-327.5556	0.0009539	0.0008305	0.7738416	-19.19978	0.0216389	-0.905497	0.0029579	0.0159404	3.290176E-005	0.0006675	0.0002404	-7.956336E-005	1.573563E-005	-0.0001136	-0.0031808	0.0061457	-0.0001373	0.0002285	-0.0024669	0.0019878	-8.440019E-005	6.276369E-005	-0.0010809	0.0025947	-1.001358E-005	0.0001329	-0.0010554	0.0007205	-9.536744E-006	2.264977E-006	-0.0009709	0.0014056	-2.31266E-005	4.887581E-005	-0.000555	0.000452	-1.430512E-005	4.11272E-005	-0.0009861	0.001109	-3.504754E-005	5.602837E-006
	40	88	0.999041	0.0472238	-0.0007817	1	0.0472302	-0.9483602	0.0472076	-0.0007812	0.047214	-0.9480702	-0.0449816	3.438165	12	0.2115897	0.0099934	-327.5556	0.0008719	0.0009878	0.7701991	-19.13542	0.0214121	-0.9042488	0.0093457	-0.0079149	0.0002627	-0.0005063	-0.0008646	-0.0100378	-9.179116E-005	-0.0005966	-0.0023206	1.780503E-005	-0.0001521	-0.0001051	-0.0010608	-0.0003818	-8.749963E-005	-8.320809E-005	0.0008535	-0.0008587	0.0001163	-4.982949E-005	0.0012705	0.0020293	0.0001307	3.445148E-005	-0.0001216	0.002792	1.835823E-005	0.0001152	-0.0008189	0.0015846	-6.294251E-005	6.008148E-005	-0.0012178	0.000981	-6.580354E-005	7.987022E-006
	41	93	0.7923428	0.0472782	-0.000804	1	0.047285	-0.97425	0.0472669	-0.0008041	0.0472738	-0.974571	-0.0443402	3.438169	12	0.2117094	0.0100107	-327.5556	0.0016222	0.0016608	0.7573447	-19.14677	0.0204113	-0.9058334	-0.0141918	0.0141444	-0.0008357	0.0005061	0.0004066	-0.0155501	-3.57628E-006	-0.0007769	0.0092685	0.005212	0.0004473	0.0002392	-0.0080843	-0.0073212	-0.0003426	-0.0003947	0.0063865	0.0035018	0.0003123	0.0001452	-0.0011642	0.0031511	-1.978874E-005	0.0001184	-0.0007096	0.0031616	-1.931191E-005	0.0001096	-0.0015578	0.0036164	-8.797647E-005	0.0001448	-0.0001521	0.0005822	-3.671647E-005	-2.372265E-005
	42	101	0.6334459	0.0473462	-0.0008616	1	0.0473541	-1.042602	0.0473334	-0.0008639	0.0473413	-1.045644	-0.0440291	3.438167	12	0.2110698	0.009995	-327.5556	0.0013461	0.0011993	0.8037137	-19.08694	0.021606	-0.9043877	0.0086493	0.0201587	0.0003088	0.0007597	-0.0058215	-0.0077903	-0.0002046	-0.0005031	0.0012819	0.0016	8.34465E-005	-2.241135E-005	0.0002922	-0.0013132	2.360344E-005	-0.0001307	0.0044807	0.0055465	0.000232	0.0002092	0.0029039	-0.0017428	0.0001395	-0.0001503	-0.0037542	-0.0003773	-0.0001755	-3.385545E-005	-0.0014295	-0.0003516	-7.033349E-005	-4.506112E-005	-0.0008654	-0.0001248	-4.243852E-005	-6.544591E-005
	43	109	0.5040323	0.0474209	-0.0009282	1	0.04743	-1.121383	0.0474069	-0.0009271	0.0474159	-1.12031	-0.0434069	3.438167	12	0.2108225	0.0099993	-327.5556	0.0011662	0.001112	0.8128876	-19.06415	0.0208514	-0.9047937	0.0096615	0.0073351	0.0003123	0.0001025	-0.0088414	-0.0054645	-0.0003669	-0.000351	-0.0035974	0.0052974	-0.0001638	0.000208	0.0040849	-0.0099895	0.000186	-0.0005763	0.0055687	0.0025474	0.0003219	6.300211E-005	-0.0050707	-0.0011503	-0.0002227	-8.2016E-005	-0.0017333	-0.0022165	-7.510186E-005	-0.0001397	-0.0012417	0.001348	-8.249284E-005	4.136562E-005	0.0021671	0.0014211	0.0001121	-3.099442E-006
	44	120	0.400641	0.0475069	-0.001023	1	0.0475179	-1.233635	0.0474919	-0.0010233	0.0475029	-1.234334	-0.0426513	3.43817	12	0.2104746	0.0100013	-327.5556	0.001794	0.0017489	0.8740972	-19.02993	0.0220571	-0.9049463	-0.0009939	0.0235506	-0.0001864	0.0009332	0.0053658	-0.0010488	0.0002887	-0.0001295	-0.0119467	-0.0050482	-0.0005634	-0.0003136	0.0086678	-0.0013146	0.0004382	-0.000173	0.0121936	0.0047881	0.0006146	0.0001655	-0.001349	-0.010597	-5.459786E-005	-0.0005535	0.0040627	0.0007737	0.0001886	2.384186E-007	0.0025157	-0.0040072	0.0001109	-0.000213	0.0005754	-0.0034337	1.525879E-005	-0.0002342
	45	134	0.316723	0.0476114	-0.0011465	1	0.0476252	-1.379436	0.0475905	-0.0011457	0.0476043	-1.379031	-0.0421702	3.438166	12	0.2100341	0.0100029	-327.5556	0.0018061	0.0016604	0.907318	-18.98845	0.0214281	-0.9051071	0.0093208	0.0193942	0.0003881	0.0007112	0.007712	0.0031389	0.0003052	-1.239777E-005	0.0116977	0.0039796	0.000582	-1.788139E-007	-0.0110168	-0.0077479	-0.0004663	-0.0004216	0.0051793	-0.0085043	0.0003016	-0.0004632	0.0028599	0.0101603	0.0001581	0.0004086	0.0002078	-0.0074423	-2.145767E-006	-0.0004337	-0.0013444	0.0006068	-6.079675E-005	-9.536744E-006	-0.0057363	0.0033707	-0.0002816	8.547306E-005
	46	148	0.2520161	0.0477172	-0.0012806	1	0.0477343	-1.53727	0.0476931	-0.0012831	0.0477104	-1.541049	-0.0415544	3.438155	12	0.2092968	0.0099906	-327.5556	0.0017409	0.0018262	-0.3395037	-18.94034	-0.0420566	-0.9032684	0.0030083	-0.0080353	-8.58307E-006	-0.000674	0.0110595	-0.0033639	0.0004976	-0.0003507	0.017526	0.0129359	0.0008268	0.0004429	-0.0001333	-0.0016304	3.004074E-005	-0.0001639	-0.0066617	0.0073527	-0.0002296	0.0002323	-0.003888	0.0003351	-0.00019	-5.531312E-005	-0.0025774	-0.012427	-0.0001192	-0.0006787	-0.0050376	-0.0089703	-0.0002463	-0.0004594	-0.0012782	-0.0045774	-4.243852E-005	-0.0003167
	47	166	0.2003205	0.0478429	-0.0014494	1	0.0478649	-1.735217	0.0478106	-0.0014497	0.0478326	-1.736811	-0.04076	3.438161	12	0.208922	0.01	-327.5556	0.0020092	0.0017593	-0.0156579	-18.90946	-0.0294302	-0.9046182	0.0149283	0.0161165	0.0006237	0.0003826	0.004641	0.0075485	0.0002601	0.0001271	-0.0080314	-0.0169437	-0.0003879	-0.0009557	0.0100491	0.0028364	0.0004678	-1.853705E-005	-2.20649E-005	0.0130811	4.959106E-005	0.0004966	0.0012115	0.0136035	8.153915E-005	0.0005285	0.0019927	0.0030188	0.0001507	1.132488E-005	-0.003178	0.0006529	-0.0001662	-3.099442E-006	-0.0047039	0.0042892	-0.0002029	8.130074E-005
	48	188	0.1588983	0.0479796	-0.0016524	1	0.0480081	-1.972412	0.0479467	-0.0016513	0.0479751	-1.972513	-0.0398982	3.438157	12	0.2084152	0.0100056	-327.5556	0.0014283	0.0012347	0.2812873	-18.8615	-0.0186808	-0.9054105	0.0104551	0.0115828	0.0003943	0.0001525	-0.008369	-0.0054419	-0.0003531	-0.0004219	0.0048909	0.0083478	0.0002837	0.0002358	-0.0021555	0.0095643	-7.1764E-005	0.0003291	-0.000511	0.0002206	-1.835823E-005	-6.991626E-005	-0.0032829	-0.0034509	-0.0001299	-0.0002662	-0.0079218	-0.0013345	-0.0003684	-0.000128	-0.0086689	0.0001832	-0.0003898	-2.467632E-005	0.0021564	-0.0050668	0.0001049	-0.0003327
	49	214	0.1260081	0.0481399	-0.001883	1	0.0481767	-2.240032	0.0481002	-0.00188	0.0481369	-2.238325	-0.039146	3.438155	12	0.2075425	0.0099987	-327.5556	0.0013539	0.0012906	0.542297	-18.77677	-0.0100522	-0.9049244	0.0086673	0.0078619	0.0003338	-0.000119	-0.0018955	-0.0080944	-2.074242E-005	-0.0006655	0.0006314	0.0071028	0.0001309	0.0001164	-0.0025451	0.0023367	-9.2268E-005	-0.0001001	-0.0049701	0.0027873	-0.0001609	1.013279E-006	0.0072905	-0.0096123	0.0003426	-0.0005624	0.0010139	0.0119539	6.651878E-005	0.0004534	-0.0031257	0.0041848	-0.000133	6.353855E-005	-0.0052237	0.0012179	-0.0002289	-4.935266E-005
	50	253	0.1001603	0.0483668	-0.0021531	1	0.0484147	-2.548859	0.0482622	-0.0021467	0.0483099	-2.546798	-0.0402749	3.438158	12	0.2066342	0.0100041	-327.5556	0.0023277	0.0011671	0.7706163	-18.68651	-0.003598	-0.9054623	-0.0027142	0.0257307	-0.0001066	7.724762E-005	-0.007499	0.0079207	-0.0002749	-0.0002847	-0.0034257	0.0065769	-4.553796E-005	-0.000178	-0.0044547	0.0207635	-0.0001032	0.0005481	-0.0078003	0.0061183	-0.0002975	-4.500152E-005	0.0041386	0.0116253	0.0002675	0.0002226	-0.0066063	0.0159602	-0.0002224	0.0004944	-0.0025506	-0.00147	-0.0001032	-0.0002657	0.0011664	0.0064628	8.273125E-005	6.604195E-005
	51	290	0.0794492	0.0485731	-0.0024781	1	0.0486363	-2.920599	0.048448	-0.0024674	0.0485108	-2.915435	-0.0398306	3.438155	12	0.2055733	0.0099983	-327.5556	0.0023242	0.0011491	0.9911	-18.57996	0.0015926	-0.904943	0.0095969	0.0259783	0.0005386	-0.0002276	0.0044187	0.0240177	0.0003319	0.0002728	-0.0065987	0.0129733	-0.0001979	5.304813E-006	0.0022093	0.0034586	0.000191	-0.0003434	0.0021341	0.0064798	0.0001779	-9.405614E-005	-0.0027939	0.0079452	-6.675721E-005	8.225441E-006	0.0092159	0.0079982	0.00049	5.292892E-005	0.0002642	0.0003795	6.699562E-005	-0.0002263	-0.0020527	0.0026877	-4.291535E-005	-0.0001265
	52	343	0.0631739	0.0487173	-0.0028651	1	0.0488014	-3.365772	0.0486675	-0.0028604	0.0487515	-3.36362	-0.0355986	3.438156	12	0.2049484	0.0100018	-327.5556	0.0014182	0.0008739	1.20995	-18.51031	0.0055094	-0.9052408	0.0068047	0.0172849	0.000397	-8.165837E-006	-0.0041499	0.0109026	-6.937982E-005	0.0001407	-0.0005977	0.0030574	4.506111E-005	-0.0001299	-0.0011826	0.0047681	-9.775163E-006	1.776218E-005	-0.0012503	0.003111	-3.19481E-005	-3.391505E-005	-0.0023763	0.0047662	-6.484986E-005	6.508827E-005	-0.0043561	0.0021682	-0.0001738	-2.741814E-006	0.0066025	0.0011359	0.0003254	-7.021428E-005	-0.0023466	-0.0079615	-0.0001116	-0.00051
	53	408	0.0501337	0.0489581	-0.0033341	1	0.0490715	-3.895869	0.0489044	-0.0033275	0.0490175	-3.892454	-0.033291	3.438149	12	0.2038415	0.0100028	-327.5556	0.0015118	0.0007387	1.438736	-18.39345	0.0087938	-0.9053082	-0.0035242	0.0216888	0	0.0001515	-0.0032411	0.0115757	-5.722047E-006	0.0001577	0.0017709	0.0040684	0.0001562	-2.425909E-005	0.0051352	0.0006525	0.0002842	-0.0001935	-0.0018742	-0.00307	-5.865098E-005	-0.0002971	-0.0022627	0.0033705	-8.535386E-005	3.552437E-005	-0.0040418	0.0043081	-0.0001581	0.0000952	-0.0059105	2.251286E-005	-0.0002642	-7.700921E-005	0.0012486	-0.0018369	7.271767E-005	-0.0002023
	54	490	0.0398258	0.0492505	-0.0038888	1	0.0494038	-4.514636	0.0491945	-0.00388	0.0493473	-4.509609	-0.0309261	3.438144	12	0.2024065	0.0099997	-327.5556	0.0016844	0.0008258	1.674318	-18.24308	0.011265	-0.9049951	-0.0018993	0.0206187	0.0002208	-2.095103E-005	-0.004048	0.011514	2.503395E-005	0.0001039	-0.0019182	0.005496	4.434586E-005	-2.384186E-006	-0.006457	-0.0014243	-0.000283	-0.0002807	0.001827	0.0113908	0.0001502	0.0004028	0.0015899	0.0028617	0.0001056	-2.992153E-005	-0.0011798	0.0076882	-4.529954E-006	0.0002037	-0.0005207	0.0035282	-1.215935E-005	3.635883E-005	-0.0049601	0.0074338	-0.0002117	0.0002291
	55	592	0.0316296	0.0496166	-0.0045484	1	0.0498246	-5.237693	0.0495485	-0.0045368	0.0497558	-5.231524	-0.0289101	3.438145	12	0.2007372	0.0100017	-327.5556	0.0016717	0.0007589	1.925164	-18.06638	0.0131464	-0.9051514	-0.0021395	0.0245837	0.0003972	-4.529954E-006	-0.0054919	0.0054891	5.149841E-005	-0.0001716	-0.0039447	0.0027177	-2.861023E-005	-8.749963E-005	-0.0045998	0.0064911	-0.0001533	6.955862E-005	0.00268	0.0042818	0.0001895	5.322695E-005	0.0002781	0.0066376	5.722046E-005	0.0001392	0.0016218	-0.0030125	0.000103	-0.0002772	-0.0009801	0.0050612	-2.503395E-005	0.0001174	0.0042078	0.0064324	0.0002463	0.000146
	56	689	0.0251206	0.0500648	-0.0053154	1	0.0503462	-6.060428	0.0499913	-0.0052989	0.0502713	-6.050591	-0.0269021	3.438142	12	0.1986031	0.0099989	-327.5556	0.0022324	0.0006599	2.189904	-17.84161	0.014642	-0.904879	-0.0090562	0.031561	0.0003216	0.0001728	-0.009625	0.0136593	-2.861023E-006	0.0002092	-0.0045295	0.0078903	-3.218652E-005	0.0001398	-0.0007162	0.0066352	4.959106E-005	0.0001075	-0.0016284	0.0041848	4.529953E-006	1.358986E-005	0.0027415	0.0026363	0.0001471	-0.0000961	0.0042436	0.0059836	0.0002334	0.0000976	0.0040777	0.001601	0.0002096	-7.367135E-005	-0.0012378	0.0040552	-1.835823E-005	1.585484E-005
	57	811	0.0199553	0.0505844	-0.0062291	1	0.0509665	-7.020244	0.0505067	-0.006212	0.0508873	-7.011755	-0.0240454	3.438143	12	0.1962759	0.0100035	-327.5556	0.0021698	0.0004887	2.485371	-17.59015	0.0160229	-0.9052716	-0.0160863	0.0306992	0.0002875	0.0001261	-0.0107904	0.0083617	-9.059907E-006	2.264977E-006	-0.0053235	0.0038676	-3.218652E-005	-3.242494E-005	7.043872E-005	0.0013473	8.153915E-005	-0.0001375	0.0008439	0.0040216	4.911423E-005	9.834766E-006	-0.0020889	0.0014612	-7.963182E-005	-0.0001402	0.0002631	0.0032611	5.173683E-005	-3.850461E-005	-0.0018002	0.0014168	-8.320809E-005	-8.237363E-005	0.0026408	0.0026182	0.0001361	-6.759168E-005
	58	1013	0.0158522	0.0512469	-0.0072642	1	0.0517591	-8.067827	0.0511564	-0.0072397	0.0516661	-8.055013	-0.0213804	3.438134	12	0.1932519	0.0100026	-327.5556	0.0026217	0.0004934	2.779324	-17.26894	0.0168867	-0.9051705	-0.0231455	0.0334937	0.0001969	0.0001754	-0.0118039	0.006282	4.339218E-005	-7.784368E-005	-0.0067839	0.0035468	-6.651879E-005	-4.887582E-006	-0.0003612	0.0037901	3.623962E-005	6.437302E-006	0.0011195	0.0057168	7.987022E-005	5.865097E-005	0.0015568	0.0047012	8.916855E-005	-2.598763E-005	0.0034298	0.0073273	0.000186	0.0001143	0.0008811	0.0019985	7.70092E-005	-0.0001029	-0.0016192	0.007877	-3.004074E-005	0.0001808
	59	1204	0.0125907	0.0520257	-0.0084274	1	0.0527039	-9.201159	0.0519292	-0.0083976	0.0526038	-9.185933	-0.0190607	3.438134	12	0.1897954	0.010003	-327.5556	0.0028698	0.0003409	3.072397	-16.90134	0.0173292	-0.905198	-0.0293371	0.0331313	0.0001745	5.64158E-005	-0.0153672	0.0052508	-3.695489E-005	-3.522636E-005	-0.0064136	0.0029976	-4.744531E-005	2.145767E-006	-0.0005725	0.0063879	-3.027916E-005	0.0001264	0.0001535	0.0047251	-4.172326E-005	-9.775163E-006	-0.0013539	0.0039476	-6.055833E-005	-0.0000985	-0.0002121	0.0070923	3.027916E-005	7.510185E-005	-0.0007309	0.0034081	-8.821488E-006	-7.617475E-005	0.0006644	0.003786	9.274483E-005	-6.02007E-005
	60	1445	0.0100011	0.0528752	-0.0097386	1	0.0537645	-10.43583	0.0527805	-0.0097039	0.0536651	-10.41766	-0.0158912	3.438126	12	0.1859998	0.0100002	-327.5556	0.0029531	0.0004186	3.37771	-16.49245	0.0179203	-0.9049368	-0.0311641	0.0333968	0.000282	0.0001028	-0.01334	0.0028524	7.796288E-005	-4.822017E-005	-0.0061553	0.0005181	-1.430512E-006	-2.479553E-005	0.0005441	0.0031222	2.551079E-005	1.645088E-005	0.0013808	0.0069738	-1.573563E-005	0.0001192	0.0018077	0.002853	5.149841E-005	-0.0001557	-0.0008709	0.0063857	-1.454353E-005	3.957748E-005	-0.0009561	0.0051762	-9.059907E-006	1.215935E-005	-0.0012508	0.0042429	2.622604E-006	-1.060963E-005
