EXPLAIN
TAG	EISPOT
TITLE	LABEL	30Q_8	Test &Identifier
DATE	LABEL	6/29/2026	Date
TIME	LABEL	14:43:40	Time
NOTES	NOTES	6	&Notes...
	Potentiostatic EIS Data Test preformed on a 30Q battery.
	- 10 AC mV rms preformed on 6/29/26
	- 30Q_8
	- Custom Battery Holder Tray. Wood Base w/ reference aligator clips connected to center of banana plug.
	- No Floating Ground
	- No Faraday Cage
PSTAT	PSTAT	REF3000-51199	Potentiostat
VDC	POTEN	0.00000E+000	T	DC &Voltage (V)
FREQINIT	QUANT	1.00000E+004	Initial Fre&q. (Hz)
FREQFINAL	QUANT	1.00000E-002	Final Fre&q. (Hz)
PTSPERDEC	QUANT	1.00000E+001	Points/&decade
VAC	QUANT	1.00000E+001	AC &Voltage (mV rms)
AREA	QUANT	2.54000E+000	&Area (cm^2)
CONDIT	TWOPARAM	F	1.50000E+001	0.00000E+000	Conditionin&g	Time(s)	E(V)
DELAY	TWOPARAM	T	1.80000E+003	0.00000E+000	Init. De&lay	Time(s)	Stab.(mV/s)
SPEED	SELECTOR	1	&Optimize for:
THD	SELECTOR	1	T&HD
DRIFTCOR	SELECTOR	1	&Drift Correction
ZGUESS	QUANT	1.00000E-001	E&stimated Z (ohms)
OCVCURVE	TABLE	718
	Pt	T	Vf	Vm	Ach	Over	Temp
	#	s	V vs. Ref.	V	V	bits	deg C
	0	2.50833	3.44683E+000	3.44683E+000	-2.23547E-004	...........	-327.56
	1	5.01667	3.44682E+000	3.44654E+000	-2.17493E-004	...........	-327.56
	2	7.525	3.44679E+000	3.44643E+000	-2.16800E-004	...........	-327.56
	3	10.0333	3.44671E+000	3.44637E+000	-2.14833E-004	...........	-327.56
	4	12.5417	3.44660E+000	3.44635E+000	-2.16360E-004	...........	-327.56
	5	15.05	3.44649E+000	3.44631E+000	-2.19293E-004	...........	-327.56
	6	17.5583	3.44641E+000	3.44630E+000	-2.16380E-004	...........	-327.56
	7	20.0667	3.44636E+000	3.44630E+000	-2.17727E-004	...........	-327.56
	8	22.575	3.44633E+000	3.44630E+000	-2.16313E-004	...........	-327.56
	9	25.0833	3.44631E+000	3.44627E+000	-2.19147E-004	...........	-327.56
	10	27.5917	3.44630E+000	3.44628E+000	-2.16353E-004	...........	-327.56
	11	30.1	3.44629E+000	3.44627E+000	-2.15073E-004	...........	-327.56
	12	32.6083	3.44628E+000	3.44628E+000	-2.18553E-004	...........	-327.56
	13	35.1167	3.44627E+000	3.44624E+000	-2.17013E-004	...........	-327.56
	14	37.625	3.44627E+000	3.44625E+000	-2.19867E-004	...........	-327.56
	15	40.1333	3.44626E+000	3.44626E+000	-2.16187E-004	...........	-327.56
	16	42.6417	3.44626E+000	3.44625E+000	-2.15773E-004	...........	-327.56
	17	45.15	3.44626E+000	3.44625E+000	-2.17933E-004	...........	-327.56
	18	47.6583	3.44625E+000	3.44625E+000	-2.15207E-004	...........	-327.56
	19	50.1667	3.44625E+000	3.44624E+000	-2.18467E-004	...........	-327.56
	20	52.675	3.44625E+000	3.44625E+000	-2.14507E-004	...........	-327.56
	21	55.1833	3.44625E+000	3.44623E+000	-2.16667E-004	...........	-327.56
	22	57.6917	3.44624E+000	3.44624E+000	-2.18020E-004	...........	-327.56
	23	60.2	3.44624E+000	3.44622E+000	-2.16367E-004	...........	-327.56
	24	62.7083	3.44624E+000	3.44624E+000	-2.15493E-004	...........	-327.56
	25	65.2167	3.44623E+000	3.44621E+000	-2.13120E-004	...........	-327.56
	26	67.725	3.44623E+000	3.44624E+000	-2.12773E-004	...........	-327.56
	27	70.2333	3.44623E+000	3.44624E+000	-2.10447E-004	...........	-327.56
	28	72.7417	3.44623E+000	3.44621E+000	-2.12700E-004	...........	-327.56
	29	75.25	3.44623E+000	3.44621E+000	-2.09727E-004	...........	-327.56
	30	77.7583	3.44623E+000	3.44621E+000	-2.10907E-004	...........	-327.56
	31	80.2667	3.44622E+000	3.44622E+000	-2.11000E-004	...........	-327.56
	32	82.775	3.44622E+000	3.44621E+000	-2.15793E-004	...........	-327.56
	33	85.2833	3.44622E+000	3.44621E+000	-2.08380E-004	...........	-327.56
	34	87.7917	3.44621E+000	3.44622E+000	-2.07667E-004	...........	-327.56
	35	90.3	3.44621E+000	3.44620E+000	-2.10920E-004	...........	-327.56
	36	92.8083	3.44621E+000	3.44621E+000	-2.15333E-004	...........	-327.56
	37	95.317	3.44621E+000	3.44621E+000	-2.06513E-004	...........	-327.56
	38	97.825	3.44621E+000	3.44618E+000	-2.03940E-004	...........	-327.56
	39	100.333	3.44621E+000	3.44620E+000	-2.07100E-004	...........	-327.56
	40	102.842	3.44620E+000	3.44618E+000	-2.06613E-004	...........	-327.56
	41	105.35	3.44620E+000	3.44620E+000	-2.11847E-004	...........	-327.56
	42	107.858	3.44619E+000	3.44618E+000	-2.06480E-004	...........	-327.56
	43	110.367	3.44619E+000	3.44618E+000	-2.10900E-004	...........	-327.56
	44	112.875	3.44619E+000	3.44618E+000	-2.12247E-004	...........	-327.56
	45	115.383	3.44619E+000	3.44617E+000	-2.10420E-004	...........	-327.56
	46	117.892	3.44618E+000	3.44617E+000	-2.08253E-004	...........	-327.56
	47	120.4	3.44618E+000	3.44619E+000	-2.08660E-004	...........	-327.56
	48	122.908	3.44617E+000	3.44615E+000	-2.11333E-004	...........	-327.56
	49	125.417	3.44617E+000	3.44618E+000	-2.07360E-004	...........	-327.56
	50	127.925	3.44617E+000	3.44617E+000	-2.12073E-004	...........	-327.56
	51	130.433	3.44617E+000	3.44617E+000	-2.06473E-004	...........	-327.56
	52	132.942	3.44617E+000	3.44614E+000	-2.08213E-004	...........	-327.56
	53	135.45	3.44616E+000	3.44615E+000	-2.07100E-004	...........	-327.56
	54	137.958	3.44616E+000	3.44615E+000	-2.01340E-004	...........	-327.56
	55	140.467	3.44615E+000	3.44617E+000	-2.01000E-004	...........	-327.56
	56	142.975	3.44615E+000	3.44616E+000	-2.05433E-004	...........	-327.56
	57	145.483	3.44616E+000	3.44617E+000	-2.09560E-004	...........	-327.56
	58	147.992	3.44616E+000	3.44616E+000	-2.14433E-004	...........	-327.56
	59	150.5	3.44616E+000	3.44615E+000	-2.09713E-004	...........	-327.56
	60	153.008	3.44616E+000	3.44615E+000	-2.06507E-004	...........	-327.56
	61	155.517	3.44616E+000	3.44614E+000	-2.05760E-004	...........	-327.56
	62	158.025	3.44615E+000	3.44615E+000	-2.08873E-004	...........	-327.56
	63	160.533	3.44615E+000	3.44615E+000	-2.14480E-004	...........	-327.56
	64	163.042	3.44615E+000	3.44615E+000	-2.10893E-004	...........	-327.56
	65	165.55	3.44615E+000	3.44613E+000	-2.11207E-004	...........	-327.56
	66	168.058	3.44615E+000	3.44614E+000	-2.08567E-004	...........	-327.56
	67	170.567	3.44615E+000	3.44615E+000	-2.09647E-004	...........	-327.56
	68	173.075	3.44614E+000	3.44614E+000	-2.12220E-004	...........	-327.56
	69	175.583	3.44614E+000	3.44613E+000	-2.12093E-004	...........	-327.56
	70	178.092	3.44614E+000	3.44615E+000	-2.15440E-004	...........	-327.56
	71	180.6	3.44614E+000	3.44613E+000	-2.11827E-004	...........	-327.56
	72	183.108	3.44614E+000	3.44613E+000	-2.12760E-004	...........	-327.56
	73	185.617	3.44614E+000	3.44615E+000	-2.09173E-004	...........	-327.56
	74	188.125	3.44614E+000	3.44615E+000	-2.13080E-004	...........	-327.56
	75	190.633	3.44614E+000	3.44614E+000	-2.12087E-004	...........	-327.56
	76	193.142	3.44614E+000	3.44614E+000	-2.17847E-004	...........	-327.56
	77	195.65	3.44614E+000	3.44615E+000	-2.14360E-004	...........	-327.56
	78	198.158	3.44614E+000	3.44614E+000	-2.15107E-004	...........	-327.56
	79	200.667	3.44614E+000	3.44613E+000	-2.18353E-004	...........	-327.56
	80	203.175	3.44614E+000	3.44615E+000	-2.09853E-004	...........	-327.56
	81	205.683	3.44614E+000	3.44613E+000	-2.11200E-004	...........	-327.56
	82	208.192	3.44614E+000	3.44613E+000	-2.17407E-004	...........	-327.56
	83	210.7	3.44614E+000	3.44614E+000	-2.16940E-004	...........	-327.56
	84	213.208	3.44614E+000	3.44611E+000	-2.15047E-004	...........	-327.56
	85	215.717	3.44613E+000	3.44613E+000	-2.15033E-004	...........	-327.56
	86	218.225	3.44613E+000	3.44613E+000	-2.13093E-004	...........	-327.56
	87	220.733	3.44613E+000	3.44614E+000	-2.12100E-004	...........	-327.56
	88	223.242	3.44613E+000	3.44615E+000	-2.14700E-004	...........	-327.56
	89	225.75	3.44613E+000	3.44615E+000	-2.10860E-004	...........	-327.56
	90	228.258	3.44614E+000	3.44616E+000	-2.20093E-004	...........	-327.56
	91	230.767	3.44614E+000	3.44616E+000	-2.15747E-004	...........	-327.56
	92	233.275	3.44615E+000	3.44618E+000	-2.18047E-004	...........	-327.56
	93	235.783	3.44616E+000	3.44616E+000	-2.19880E-004	...........	-327.56
	94	238.292	3.44616E+000	3.44616E+000	-2.10213E-004	...........	-327.56
	95	240.8	3.44616E+000	3.44615E+000	-2.15940E-004	...........	-327.56
	96	243.308	3.44616E+000	3.44617E+000	-2.16360E-004	...........	-327.56
	97	245.817	3.44616E+000	3.44616E+000	-2.17873E-004	...........	-327.56
	98	248.325	3.44616E+000	3.44616E+000	-2.15780E-004	...........	-327.56
	99	250.833	3.44616E+000	3.44616E+000	-2.16100E-004	...........	-327.56
	100	253.342	3.44616E+000	3.44616E+000	-2.16667E-004	...........	-327.56
	101	255.85	3.44616E+000	3.44618E+000	-2.18867E-004	...........	-327.56
	102	258.358	3.44617E+000	3.44618E+000	-2.13673E-004	...........	-327.56
	103	260.867	3.44617E+000	3.44618E+000	-2.15480E-004	...........	-327.56
	104	263.375	3.44618E+000	3.44617E+000	-2.14213E-004	...........	-327.56
	105	265.883	3.44618E+000	3.44618E+000	-2.14253E-004	...........	-327.56
	106	268.392	3.44618E+000	3.44618E+000	-2.15053E-004	...........	-327.56
	107	270.9	3.44618E+000	3.44619E+000	-2.10540E-004	...........	-327.56
	108	273.408	3.44618E+000	3.44619E+000	-2.14593E-004	...........	-327.56
	109	275.917	3.44618E+000	3.44618E+000	-2.13140E-004	...........	-327.56
	110	278.425	3.44619E+000	3.44620E+000	-2.13833E-004	...........	-327.56
	111	280.933	3.44619E+000	3.44620E+000	-2.11300E-004	...........	-327.56
	112	283.442	3.44619E+000	3.44619E+000	-2.12280E-004	...........	-327.56
	113	285.95	3.44619E+000	3.44616E+000	-2.12033E-004	...........	-327.56
	114	288.458	3.44619E+000	3.44620E+000	-2.15667E-004	...........	-327.56
	115	290.967	3.44619E+000	3.44618E+000	-2.13873E-004	...........	-327.56
	116	293.475	3.44618E+000	3.44620E+000	-2.09520E-004	...........	-327.56
	117	295.983	3.44619E+000	3.44621E+000	-2.10600E-004	...........	-327.56
	118	298.492	3.44619E+000	3.44622E+000	-2.21007E-004	...........	-327.56
	119	301	3.44620E+000	3.44621E+000	-2.15227E-004	...........	-327.56
	120	303.508	3.44621E+000	3.44621E+000	-2.15193E-004	...........	-327.56
	121	306.017	3.44621E+000	3.44623E+000	-2.14067E-004	...........	-327.56
	122	308.525	3.44621E+000	3.44622E+000	-2.15833E-004	...........	-327.56
	123	311.033	3.44622E+000	3.44623E+000	-2.15127E-004	...........	-327.56
	124	313.542	3.44622E+000	3.44625E+000	-2.15073E-004	...........	-327.56
	125	316.05	3.44623E+000	3.44622E+000	-2.18673E-004	...........	-327.56
	126	318.558	3.44623E+000	3.44624E+000	-2.12240E-004	...........	-327.56
	127	321.067	3.44623E+000	3.44624E+000	-2.15527E-004	...........	-327.56
	128	323.575	3.44624E+000	3.44625E+000	-2.16987E-004	...........	-327.56
	129	326.083	3.44624E+000	3.44627E+000	-2.15687E-004	...........	-327.56
	130	328.592	3.44625E+000	3.44626E+000	-2.16087E-004	...........	-327.56
	131	331.1	3.44625E+000	3.44627E+000	-2.11847E-004	...........	-327.56
	132	333.608	3.44626E+000	3.44626E+000	-2.12153E-004	...........	-327.56
	133	336.117	3.44626E+000	3.44629E+000	-2.15827E-004	...........	-327.56
	134	338.625	3.44627E+000	3.44626E+000	-2.20300E-004	...........	-327.56
	135	341.133	3.44627E+000	3.44629E+000	-2.19073E-004	...........	-327.56
	136	343.642	3.44627E+000	3.44628E+000	-2.20327E-004	...........	-327.56
	137	346.15	3.44628E+000	3.44628E+000	-2.19793E-004	...........	-327.56
	138	348.658	3.44628E+000	3.44629E+000	-2.16247E-004	...........	-327.56
	139	351.167	3.44628E+000	3.44628E+000	-2.15373E-004	...........	-327.56
	140	353.675	3.44628E+000	3.44630E+000	-2.18087E-004	...........	-327.56
	141	356.183	3.44629E+000	3.44629E+000	-2.11580E-004	...........	-327.56
	142	358.692	3.44629E+000	3.44628E+000	-2.09780E-004	...........	-327.56
	143	361.2	3.44629E+000	3.44628E+000	-2.14533E-004	...........	-327.56
	144	363.708	3.44629E+000	3.44630E+000	-2.16047E-004	...........	-327.56
	145	366.217	3.44629E+000	3.44630E+000	-2.14773E-004	...........	-327.56
	146	368.725	3.44629E+000	3.44631E+000	-2.09053E-004	...........	-327.56
	147	371.233	3.44630E+000	3.44632E+000	-2.08387E-004	...........	-327.56
	148	373.742	3.44630E+000	3.44631E+000	-2.13973E-004	...........	-327.56
	149	376.25	3.44631E+000	3.44633E+000	-2.11073E-004	...........	-327.56
	150	378.758	3.44631E+000	3.44633E+000	-2.19307E-004	...........	-327.56
	151	381.267	3.44632E+000	3.44633E+000	-2.15260E-004	...........	-327.56
	152	383.775	3.44632E+000	3.44630E+000	-2.13260E-004	...........	-327.56
	153	386.283	3.44632E+000	3.44633E+000	-2.12653E-004	...........	-327.56
	154	388.792	3.44632E+000	3.44634E+000	-2.14760E-004	...........	-327.56
	155	391.3	3.44632E+000	3.44634E+000	-2.15660E-004	...........	-327.56
	156	393.808	3.44633E+000	3.44633E+000	-2.14860E-004	...........	-327.56
	157	396.317	3.44633E+000	3.44635E+000	-2.16253E-004	...........	-327.56
	158	398.825	3.44634E+000	3.44633E+000	-2.19087E-004	...........	-327.56
	159	401.333	3.44634E+000	3.44630E+000	-2.16327E-004	...........	-327.56
	160	403.842	3.44633E+000	3.44633E+000	-2.15380E-004	...........	-327.56
	161	406.35	3.44633E+000	3.44633E+000	-2.14353E-004	...........	-327.56
	162	408.858	3.44632E+000	3.44634E+000	-2.19880E-004	...........	-327.56
	163	411.367	3.44633E+000	3.44634E+000	-2.12860E-004	...........	-327.56
	164	413.875	3.44633E+000	3.44635E+000	-2.18007E-004	...........	-327.56
	165	416.383	3.44634E+000	3.44634E+000	-2.20040E-004	...........	-327.56
	166	418.892	3.44634E+000	3.44636E+000	-2.20493E-004	...........	-327.56
	167	421.4	3.44635E+000	3.44634E+000	-2.20113E-004	...........	-327.56
	168	423.908	3.44635E+000	3.44636E+000	-2.20760E-004	...........	-327.56
	169	426.417	3.44635E+000	3.44634E+000	-2.21033E-004	...........	-327.56
	170	428.925	3.44635E+000	3.44635E+000	-2.18213E-004	...........	-327.56
	171	431.433	3.44635E+000	3.44636E+000	-2.18707E-004	...........	-327.56
	172	433.942	3.44635E+000	3.44634E+000	-2.13100E-004	...........	-327.56
	173	436.45	3.44635E+000	3.44637E+000	-2.19260E-004	...........	-327.56
	174	438.958	3.44635E+000	3.44637E+000	-2.15187E-004	...........	-327.56
	175	441.467	3.44636E+000	3.44637E+000	-2.19153E-004	...........	-327.56
	176	443.975	3.44636E+000	3.44638E+000	-2.15147E-004	...........	-327.56
	177	446.483	3.44637E+000	3.44635E+000	-2.11293E-004	...........	-327.56
	178	448.992	3.44637E+000	3.44637E+000	-2.14360E-004	...........	-327.56
	179	451.5	3.44637E+000	3.44637E+000	-2.12420E-004	...........	-327.56
	180	454.008	3.44637E+000	3.44637E+000	-2.19847E-004	...........	-327.56
	181	456.517	3.44637E+000	3.44635E+000	-2.17333E-004	...........	-327.56
	182	459.025	3.44637E+000	3.44636E+000	-2.14900E-004	...........	-327.56
	183	461.533	3.44636E+000	3.44636E+000	-2.20893E-004	...........	-327.56
	184	464.042	3.44636E+000	3.44636E+000	-2.19707E-004	...........	-327.56
	185	466.55	3.44636E+000	3.44637E+000	-2.11827E-004	...........	-327.56
	186	469.058	3.44636E+000	3.44637E+000	-2.16280E-004	...........	-327.56
	187	471.567	3.44636E+000	3.44638E+000	-2.15540E-004	...........	-327.56
	188	474.075	3.44637E+000	3.44637E+000	-2.14507E-004	...........	-327.56
	189	476.583	3.44637E+000	3.44638E+000	-2.18280E-004	...........	-327.56
	190	479.092	3.44637E+000	3.44637E+000	-2.15040E-004	...........	-327.56
	191	481.6	3.44637E+000	3.44636E+000	-2.14673E-004	...........	-327.56
	192	484.108	3.44637E+000	3.44637E+000	-2.17787E-004	...........	-327.56
	193	486.617	3.44637E+000	3.44636E+000	-2.11073E-004	...........	-327.56
	194	489.125	3.44637E+000	3.44637E+000	-2.13067E-004	...........	-327.56
	195	491.633	3.44636E+000	3.44636E+000	-2.14627E-004	...........	-327.56
	196	494.142	3.44636E+000	3.44638E+000	-2.09953E-004	...........	-327.56
	197	496.65	3.44637E+000	3.44638E+000	-2.13487E-004	...........	-327.56
	198	499.158	3.44637E+000	3.44636E+000	-2.11147E-004	...........	-327.56
	199	501.667	3.44637E+000	3.44636E+000	-2.08153E-004	...........	-327.56
	200	504.175	3.44637E+000	3.44637E+000	-2.15613E-004	...........	-327.56
	201	506.683	3.44637E+000	3.44635E+000	-2.14687E-004	...........	-327.56
	202	509.192	3.44636E+000	3.44635E+000	-2.13713E-004	...........	-327.56
	203	511.7	3.44636E+000	3.44637E+000	-2.12807E-004	...........	-327.56
	204	514.208	3.44636E+000	3.44635E+000	-2.14253E-004	...........	-327.56
	205	516.717	3.44636E+000	3.44634E+000	-2.15073E-004	...........	-327.56
	206	519.225	3.44635E+000	3.44633E+000	-2.17513E-004	...........	-327.56
	207	521.733	3.44635E+000	3.44637E+000	-2.13747E-004	...........	-327.56
	208	524.242	3.44635E+000	3.44635E+000	-2.17200E-004	...........	-327.56
	209	526.75	3.44635E+000	3.44635E+000	-2.13300E-004	...........	-327.56
	210	529.258	3.44635E+000	3.44635E+000	-2.11287E-004	...........	-327.56
	211	531.767	3.44635E+000	3.44633E+000	-2.13793E-004	...........	-327.56
	212	534.275	3.44635E+000	3.44635E+000	-2.11347E-004	...........	-327.56
	213	536.783	3.44635E+000	3.44636E+000	-2.11547E-004	...........	-327.56
	214	539.292	3.44635E+000	3.44635E+000	-2.14240E-004	...........	-327.56
	215	541.8	3.44635E+000	3.44635E+000	-2.16387E-004	...........	-327.56
	216	544.308	3.44635E+000	3.44634E+000	-2.17640E-004	...........	-327.56
	217	546.817	3.44635E+000	3.44634E+000	-2.15080E-004	...........	-327.56
	218	549.325	3.44635E+000	3.44631E+000	-2.19720E-004	...........	-327.56
	219	551.833	3.44634E+000	3.44633E+000	-2.18500E-004	...........	-327.56
	220	554.342	3.44634E+000	3.44632E+000	-2.19907E-004	...........	-327.56
	221	556.85	3.44633E+000	3.44633E+000	-2.16860E-004	...........	-327.56
	222	559.358	3.44633E+000	3.44633E+000	-2.20207E-004	...........	-327.56
	223	561.867	3.44632E+000	3.44633E+000	-2.17893E-004	...........	-327.56
	224	564.375	3.44632E+000	3.44631E+000	-2.20000E-004	...........	-327.56
	225	566.883	3.44633E+000	3.44632E+000	-2.20247E-004	...........	-327.56
	226	569.392	3.44632E+000	3.44633E+000	-2.19560E-004	...........	-327.56
	227	571.9	3.44632E+000	3.44631E+000	-2.19633E-004	...........	-327.56
	228	574.408	3.44632E+000	3.44632E+000	-2.17573E-004	...........	-327.56
	229	576.917	3.44632E+000	3.44630E+000	-2.16320E-004	...........	-327.56
	230	579.425	3.44632E+000	3.44630E+000	-2.18693E-004	...........	-327.56
	231	581.933	3.44631E+000	3.44631E+000	-2.16500E-004	...........	-327.56
	232	584.442	3.44631E+000	3.44631E+000	-2.20667E-004	...........	-327.56
	233	586.95	3.44631E+000	3.44630E+000	-2.24113E-004	...........	-327.56
	234	589.458	3.44631E+000	3.44628E+000	-2.19813E-004	...........	-327.56
	235	591.967	3.44630E+000	3.44630E+000	-2.15880E-004	...........	-327.56
	236	594.475	3.44630E+000	3.44631E+000	-2.20907E-004	...........	-327.56
	237	596.983	3.44630E+000	3.44629E+000	-2.17693E-004	...........	-327.56
	238	599.492	3.44630E+000	3.44629E+000	-2.20887E-004	...........	-327.56
	239	602	3.44630E+000	3.44630E+000	-2.19860E-004	...........	-327.56
	240	604.508	3.44629E+000	3.44628E+000	-2.19193E-004	...........	-327.56
	241	607.017	3.44629E+000	3.44629E+000	-2.20867E-004	...........	-327.56
	242	609.525	3.44629E+000	3.44627E+000	-2.23367E-004	...........	-327.56
	243	612.033	3.44629E+000	3.44629E+000	-2.21100E-004	...........	-327.56
	244	614.542	3.44628E+000	3.44628E+000	-2.24487E-004	...........	-327.56
	245	617.05	3.44628E+000	3.44628E+000	-2.28893E-004	...........	-327.56
	246	619.558	3.44628E+000	3.44626E+000	-2.27727E-004	...........	-327.56
	247	622.067	3.44628E+000	3.44625E+000	-2.26647E-004	...........	-327.56
	248	624.575	3.44627E+000	3.44627E+000	-2.27213E-004	...........	-327.56
	249	627.083	3.44627E+000	3.44625E+000	-2.23947E-004	...........	-327.56
	250	629.592	3.44626E+000	3.44628E+000	-2.24533E-004	...........	-327.56
	251	632.1	3.44626E+000	3.44628E+000	-2.26627E-004	...........	-327.56
	252	634.608	3.44626E+000	3.44625E+000	-2.28860E-004	...........	-327.56
	253	637.117	3.44627E+000	3.44624E+000	-2.22393E-004	...........	-327.56
	254	639.625	3.44627E+000	3.44626E+000	-2.23027E-004	...........	-327.56
	255	642.133	3.44626E+000	3.44627E+000	-2.20187E-004	...........	-327.56
	256	644.642	3.44626E+000	3.44625E+000	-2.21287E-004	...........	-327.56
	257	647.15	3.44626E+000	3.44625E+000	-2.18820E-004	...........	-327.56
	258	649.658	3.44626E+000	3.44626E+000	-2.25040E-004	...........	-327.56
	259	652.167	3.44626E+000	3.44625E+000	-2.24187E-004	...........	-327.56
	260	654.675	3.44625E+000	3.44623E+000	-2.22613E-004	...........	-327.56
	261	657.183	3.44625E+000	3.44623E+000	-2.25927E-004	...........	-327.56
	262	659.692	3.44624E+000	3.44624E+000	-2.18960E-004	...........	-327.56
	263	662.2	3.44624E+000	3.44626E+000	-2.25273E-004	...........	-327.56
	264	664.708	3.44624E+000	3.44626E+000	-2.23873E-004	...........	-327.56
	265	667.217	3.44624E+000	3.44625E+000	-2.28753E-004	...........	-327.56
	266	669.725	3.44625E+000	3.44624E+000	-2.21467E-004	...........	-327.56
	267	672.233	3.44625E+000	3.44624E+000	-2.25360E-004	...........	-327.56
	268	674.742	3.44625E+000	3.44624E+000	-2.27813E-004	...........	-327.56
	269	677.25	3.44624E+000	3.44623E+000	-2.33660E-004	...........	-327.56
	270	679.758	3.44624E+000	3.44623E+000	-2.31140E-004	...........	-327.56
	271	682.267	3.44624E+000	3.44625E+000	-2.29907E-004	...........	-327.56
	272	684.775	3.44624E+000	3.44623E+000	-2.24293E-004	...........	-327.56
	273	687.283	3.44624E+000	3.44621E+000	-2.26227E-004	...........	-327.56
	274	689.792	3.44623E+000	3.44624E+000	-2.30173E-004	...........	-327.56
	275	692.3	3.44623E+000	3.44624E+000	-2.30993E-004	...........	-327.56
	276	694.808	3.44623E+000	3.44623E+000	-2.24653E-004	...........	-327.56
	277	697.317	3.44623E+000	3.44621E+000	-2.28327E-004	...........	-327.56
	278	699.825	3.44623E+000	3.44620E+000	-2.32200E-004	...........	-327.56
	279	702.333	3.44622E+000	3.44622E+000	-2.29447E-004	...........	-327.56
	280	704.842	3.44622E+000	3.44620E+000	-2.27847E-004	...........	-327.56
	281	707.35	3.44621E+000	3.44622E+000	-2.28627E-004	...........	-327.56
	282	709.858	3.44621E+000	3.44624E+000	-2.30267E-004	...........	-327.56
	283	712.367	3.44621E+000	3.44624E+000	-2.33640E-004	...........	-327.56
	284	714.875	3.44622E+000	3.44622E+000	-2.27427E-004	...........	-327.56
	285	717.383	3.44623E+000	3.44621E+000	-2.26960E-004	...........	-327.56
	286	719.892	3.44623E+000	3.44622E+000	-2.26313E-004	...........	-327.56
	287	722.4	3.44623E+000	3.44621E+000	-2.30580E-004	...........	-327.56
	288	724.908	3.44622E+000	3.44622E+000	-2.28213E-004	...........	-327.56
	289	727.417	3.44622E+000	3.44620E+000	-2.29327E-004	...........	-327.56
	290	729.925	3.44622E+000	3.44621E+000	-2.28993E-004	...........	-327.56
	291	732.433	3.44621E+000	3.44621E+000	-2.34873E-004	...........	-327.56
	292	734.942	3.44621E+000	3.44622E+000	-2.33660E-004	...........	-327.56
	293	737.45	3.44621E+000	3.44620E+000	-2.32007E-004	...........	-327.56
	294	739.958	3.44621E+000	3.44620E+000	-2.34620E-004	...........	-327.56
	295	742.467	3.44621E+000	3.44619E+000	-2.29487E-004	...........	-327.56
	296	744.975	3.44620E+000	3.44621E+000	-2.31647E-004	...........	-327.56
	297	747.483	3.44620E+000	3.44618E+000	-2.31487E-004	...........	-327.56
	298	749.992	3.44620E+000	3.44620E+000	-2.29513E-004	...........	-327.56
	299	752.5	3.44620E+000	3.44618E+000	-2.34327E-004	...........	-327.56
	300	755.008	3.44619E+000	3.44618E+000	-2.31760E-004	...........	-327.56
	301	757.517	3.44619E+000	3.44618E+000	-2.28227E-004	...........	-327.56
	302	760.025	3.44619E+000	3.44618E+000	-2.32767E-004	...........	-327.56
	303	762.533	3.44618E+000	3.44617E+000	-2.30700E-004	...........	-327.56
	304	765.042	3.44618E+000	3.44619E+000	-2.33633E-004	...........	-327.56
	305	767.55	3.44618E+000	3.44619E+000	-2.28307E-004	...........	-327.56
	306	770.058	3.44618E+000	3.44618E+000	-2.33927E-004	...........	-327.56
	307	772.567	3.44619E+000	3.44619E+000	-2.33100E-004	...........	-327.56
	308	775.075	3.44619E+000	3.44619E+000	-2.31860E-004	...........	-327.56
	309	777.583	3.44619E+000	3.44618E+000	-2.34027E-004	...........	-327.56
	310	780.092	3.44619E+000	3.44617E+000	-2.29513E-004	...........	-327.56
	311	782.6	3.44618E+000	3.44619E+000	-2.29540E-004	...........	-327.56
	312	785.108	3.44618E+000	3.44615E+000	-2.26807E-004	...........	-327.56
	313	787.617	3.44618E+000	3.44618E+000	-2.26560E-004	...........	-327.56
	314	790.125	3.44617E+000	3.44620E+000	-2.29907E-004	...........	-327.56
	315	792.633	3.44617E+000	3.44616E+000	-2.33980E-004	...........	-327.56
	316	795.142	3.44617E+000	3.44619E+000	-2.35727E-004	...........	-327.56
	317	797.65	3.44618E+000	3.44618E+000	-2.34133E-004	...........	-327.56
	318	800.158	3.44618E+000	3.44619E+000	-2.34140E-004	...........	-327.56
	319	802.667	3.44618E+000	3.44619E+000	-2.30447E-004	...........	-327.56
	320	805.175	3.44618E+000	3.44617E+000	-2.32080E-004	...........	-327.56
	321	807.683	3.44618E+000	3.44618E+000	-2.34460E-004	...........	-327.56
	322	810.192	3.44618E+000	3.44620E+000	-2.33153E-004	...........	-327.56
	323	812.7	3.44618E+000	3.44618E+000	-2.29947E-004	...........	-327.56
	324	815.208	3.44618E+000	3.44619E+000	-2.30947E-004	...........	-327.56
	325	817.717	3.44619E+000	3.44617E+000	-2.32287E-004	...........	-327.56
	326	820.225	3.44619E+000	3.44618E+000	-2.34893E-004	...........	-327.56
	327	822.733	3.44618E+000	3.44618E+000	-2.30147E-004	...........	-327.56
	328	825.242	3.44618E+000	3.44617E+000	-2.28940E-004	...........	-327.56
	329	827.75	3.44618E+000	3.44615E+000	-2.37400E-004	...........	-327.56
	330	830.258	3.44617E+000	3.44616E+000	-2.34067E-004	...........	-327.56
	331	832.767	3.44617E+000	3.44617E+000	-2.31480E-004	...........	-327.56
	332	835.275	3.44616E+000	3.44618E+000	-2.34087E-004	...........	-327.56
	333	837.783	3.44616E+000	3.44617E+000	-2.34593E-004	...........	-327.56
	334	840.292	3.44617E+000	3.44617E+000	-2.31960E-004	...........	-327.56
	335	842.8	3.44617E+000	3.44616E+000	-2.28520E-004	...........	-327.56
	336	845.308	3.44617E+000	3.44616E+000	-2.29733E-004	...........	-327.56
	337	847.817	3.44617E+000	3.44618E+000	-2.31813E-004	...........	-327.56
	338	850.325	3.44617E+000	3.44616E+000	-2.31453E-004	...........	-327.56
	339	852.833	3.44617E+000	3.44617E+000	-2.29560E-004	...........	-327.56
	340	855.342	3.44617E+000	3.44618E+000	-2.35880E-004	...........	-327.56
	341	857.85	3.44617E+000	3.44615E+000	-2.34407E-004	...........	-327.56
	342	860.358	3.44617E+000	3.44616E+000	-2.37133E-004	...........	-327.56
	343	862.867	3.44617E+000	3.44615E+000	-2.36893E-004	...........	-327.56
	344	865.375	3.44616E+000	3.44613E+000	-2.37960E-004	...........	-327.56
	345	867.883	3.44616E+000	3.44617E+000	-2.31813E-004	...........	-327.56
	346	870.392	3.44615E+000	3.44614E+000	-2.30313E-004	...........	-327.56
	347	872.9	3.44615E+000	3.44616E+000	-2.35293E-004	...........	-327.56
	348	875.408	3.44615E+000	3.44615E+000	-2.32307E-004	...........	-327.56
	349	877.917	3.44615E+000	3.44616E+000	-2.36267E-004	...........	-327.56
	350	880.425	3.44615E+000	3.44613E+000	-2.37307E-004	...........	-327.56
	351	882.933	3.44615E+000	3.44615E+000	-2.29047E-004	...........	-327.56
	352	885.442	3.44615E+000	3.44615E+000	-2.31613E-004	...........	-327.56
	353	887.95	3.44615E+000	3.44615E+000	-2.34287E-004	...........	-327.56
	354	890.458	3.44615E+000	3.44616E+000	-2.37513E-004	...........	-327.56
	355	892.967	3.44615E+000	3.44614E+000	-2.34067E-004	...........	-327.56
	356	895.475	3.44615E+000	3.44614E+000	-2.35113E-004	...........	-327.56
	357	897.983	3.44615E+000	3.44616E+000	-2.40647E-004	...........	-327.56
	358	900.492	3.44615E+000	3.44616E+000	-2.37160E-004	...........	-327.56
	359	903	3.44615E+000	3.44614E+000	-2.39847E-004	...........	-327.56
	360	905.508	3.44615E+000	3.44612E+000	-2.42393E-004	...........	-327.56
	361	908.017	3.44615E+000	3.44614E+000	-2.33107E-004	...........	-327.56
	362	910.525	3.44614E+000	3.44614E+000	-2.37680E-004	...........	-327.56
	363	913.033	3.44614E+000	3.44616E+000	-2.37100E-004	...........	-327.56
	364	915.542	3.44614E+000	3.44616E+000	-2.39120E-004	...........	-327.56
	365	918.05	3.44614E+000	3.44613E+000	-2.37000E-004	...........	-327.56
	366	920.558	3.44615E+000	3.44615E+000	-2.39200E-004	...........	-327.56
	367	923.067	3.44615E+000	3.44616E+000	-2.37280E-004	...........	-327.56
	368	925.575	3.44615E+000	3.44614E+000	-2.38233E-004	...........	-327.56
	369	928.083	3.44615E+000	3.44614E+000	-2.41093E-004	...........	-327.56
	370	930.592	3.44615E+000	3.44612E+000	-2.34593E-004	...........	-327.56
	371	933.1	3.44614E+000	3.44615E+000	-2.44320E-004	...........	-327.56
	372	935.608	3.44614E+000	3.44616E+000	-2.39340E-004	...........	-327.56
	373	938.117	3.44614E+000	3.44614E+000	-2.40040E-004	...........	-327.56
	374	940.625	3.44614E+000	3.44614E+000	-2.47627E-004	...........	-327.56
	375	943.133	3.44615E+000	3.44613E+000	-2.42333E-004	...........	-327.56
	376	945.642	3.44614E+000	3.44615E+000	-2.45247E-004	...........	-327.56
	377	948.15	3.44614E+000	3.44616E+000	-2.51100E-004	...........	-327.56
	378	950.66	3.44614E+000	3.44614E+000	-2.45993E-004	...........	-327.56
	379	953.17	3.44615E+000	3.44613E+000	-2.51640E-004	...........	-327.56
	380	955.68	3.44615E+000	3.44615E+000	-2.43520E-004	...........	-327.56
	381	958.18	3.44614E+000	3.44614E+000	-2.51813E-004	...........	-327.56
	382	960.69	3.44614E+000	3.44613E+000	-2.52613E-004	...........	-327.56
	383	963.2	3.44614E+000	3.44613E+000	-2.49107E-004	...........	-327.56
	384	965.71	3.44614E+000	3.44613E+000	-2.48840E-004	...........	-327.56
	385	968.22	3.44614E+000	3.44613E+000	-2.43793E-004	...........	-327.56
	386	970.73	3.44613E+000	3.44614E+000	-2.46073E-004	...........	-327.56
	387	973.23	3.44613E+000	3.44615E+000	-2.44947E-004	...........	-327.56
	388	975.74	3.44613E+000	3.44613E+000	-2.43413E-004	...........	-327.56
	389	978.25	3.44614E+000	3.44613E+000	-2.47567E-004	...........	-327.56
	390	980.76	3.44614E+000	3.44614E+000	-2.47167E-004	...........	-327.56
	391	983.27	3.44614E+000	3.44612E+000	-2.48053E-004	...........	-327.56
	392	985.78	3.44613E+000	3.44613E+000	-2.52913E-004	...........	-327.56
	393	988.28	3.44613E+000	3.44612E+000	-2.53160E-004	...........	-327.56
	394	990.79	3.44613E+000	3.44611E+000	-2.47360E-004	...........	-327.56
	395	993.3	3.44612E+000	3.44614E+000	-2.45673E-004	...........	-327.56
	396	995.81	3.44612E+000	3.44612E+000	-2.49327E-004	...........	-327.56
	397	998.32	3.44612E+000	3.44613E+000	-2.53780E-004	...........	-327.56
	398	1000.83	3.44612E+000	3.44612E+000	-2.48600E-004	...........	-327.56
	399	1003.33	3.44612E+000	3.44613E+000	-2.47580E-004	...........	-327.56
	400	1005.84	3.44612E+000	3.44612E+000	-2.49747E-004	...........	-327.56
	401	1008.35	3.44612E+000	3.44613E+000	-2.48313E-004	...........	-327.56
	402	1010.86	3.44612E+000	3.44610E+000	-2.48553E-004	...........	-327.56
	403	1013.37	3.44612E+000	3.44611E+000	-2.52613E-004	...........	-327.56
	404	1015.88	3.44612E+000	3.44610E+000	-2.47380E-004	...........	-327.56
	405	1018.38	3.44611E+000	3.44612E+000	-2.56940E-004	...........	-327.56
	406	1020.89	3.44611E+000	3.44611E+000	-2.54547E-004	...........	-327.56
	407	1023.4	3.44611E+000	3.44612E+000	-2.53087E-004	...........	-327.56
	408	1025.91	3.44611E+000	3.44611E+000	-2.54480E-004	...........	-327.56
	409	1028.42	3.44611E+000	3.44612E+000	-2.50347E-004	...........	-327.56
	410	1030.93	3.44611E+000	3.44611E+000	-2.51573E-004	...........	-327.56
	411	1033.43	3.44611E+000	3.44609E+000	-2.50060E-004	...........	-327.56
	412	1035.94	3.44611E+000	3.44612E+000	-2.56400E-004	...........	-327.56
	413	1038.45	3.44611E+000	3.44610E+000	-2.51413E-004	...........	-327.56
	414	1040.96	3.44611E+000	3.44611E+000	-2.55893E-004	...........	-327.56
	415	1043.47	3.44611E+000	3.44611E+000	-2.54167E-004	...........	-327.56
	416	1045.98	3.44611E+000	3.44610E+000	-2.53007E-004	...........	-327.56
	417	1048.48	3.44611E+000	3.44613E+000	-2.55620E-004	...........	-327.56
	418	1050.99	3.44611E+000	3.44611E+000	-2.56827E-004	...........	-327.56
	419	1053.5	3.44611E+000	3.44611E+000	-2.59093E-004	...........	-327.56
	420	1056.01	3.44611E+000	3.44609E+000	-2.56767E-004	...........	-327.56
	421	1058.52	3.44611E+000	3.44609E+000	-2.60080E-004	...........	-327.56
	422	1061.03	3.44610E+000	3.44611E+000	-2.60320E-004	...........	-327.56
	423	1063.53	3.44610E+000	3.44608E+000	-2.60273E-004	...........	-327.56
	424	1066.04	3.44610E+000	3.44610E+000	-2.56593E-004	...........	-327.56
	425	1068.55	3.44610E+000	3.44609E+000	-2.56040E-004	...........	-327.56
	426	1071.06	3.44610E+000	3.44609E+000	-2.59667E-004	...........	-327.56
	427	1073.57	3.44609E+000	3.44610E+000	-2.56873E-004	...........	-327.56
	428	1076.08	3.44609E+000	3.44608E+000	-2.56173E-004	...........	-327.56
	429	1078.58	3.44609E+000	3.44612E+000	-2.57333E-004	...........	-327.56
	430	1081.09	3.44609E+000	3.44609E+000	-2.59053E-004	...........	-327.56
	431	1083.6	3.44610E+000	3.44610E+000	-2.60187E-004	...........	-327.56
	432	1086.11	3.44610E+000	3.44608E+000	-2.60487E-004	...........	-327.56
	433	1088.62	3.44609E+000	3.44609E+000	-2.58880E-004	...........	-327.56
	434	1091.13	3.44609E+000	3.44609E+000	-2.63620E-004	...........	-327.56
	435	1093.63	3.44609E+000	3.44609E+000	-2.63387E-004	...........	-327.56
	436	1096.14	3.44609E+000	3.44609E+000	-2.59747E-004	...........	-327.56
	437	1098.65	3.44609E+000	3.44609E+000	-2.62127E-004	...........	-327.56
	438	1101.16	3.44609E+000	3.44608E+000	-2.60467E-004	...........	-327.56
	439	1103.67	3.44609E+000	3.44610E+000	-2.58593E-004	...........	-327.56
	440	1106.18	3.44609E+000	3.44609E+000	-2.59747E-004	...........	-327.56
	441	1108.68	3.44609E+000	3.44609E+000	-2.59047E-004	...........	-327.56
	442	1111.19	3.44609E+000	3.44606E+000	-2.56020E-004	...........	-327.56
	443	1113.7	3.44609E+000	3.44609E+000	-2.52447E-004	...........	-327.56
	444	1116.21	3.44608E+000	3.44608E+000	-2.58007E-004	...........	-327.56
	445	1118.72	3.44608E+000	3.44607E+000	-2.54520E-004	...........	-327.56
	446	1121.23	3.44608E+000	3.44608E+000	-2.59013E-004	...........	-327.56
	447	1123.73	3.44608E+000	3.44608E+000	-2.55567E-004	...........	-327.56
	448	1126.24	3.44608E+000	3.44606E+000	-2.64227E-004	...........	-327.56
	449	1128.75	3.44608E+000	3.44608E+000	-2.61113E-004	...........	-327.56
	450	1131.26	3.44607E+000	3.44607E+000	-2.60333E-004	...........	-327.56
	451	1133.77	3.44607E+000	3.44607E+000	-2.58233E-004	...........	-327.56
	452	1136.28	3.44607E+000	3.44605E+000	-2.59060E-004	...........	-327.56
	453	1138.78	3.44607E+000	3.44606E+000	-2.66020E-004	...........	-327.56
	454	1141.29	3.44607E+000	3.44606E+000	-2.56580E-004	...........	-327.56
	455	1143.8	3.44606E+000	3.44607E+000	-2.59167E-004	...........	-327.56
	456	1146.31	3.44606E+000	3.44608E+000	-2.52867E-004	...........	-327.56
	457	1148.82	3.44607E+000	3.44608E+000	-2.54527E-004	...........	-327.56
	458	1151.33	3.44607E+000	3.44606E+000	-2.54967E-004	...........	-327.56
	459	1153.83	3.44607E+000	3.44608E+000	-2.65487E-004	...........	-327.56
	460	1156.34	3.44608E+000	3.44606E+000	-2.60160E-004	...........	-327.56
	461	1158.85	3.44607E+000	3.44609E+000	-2.55687E-004	...........	-327.56
	462	1161.36	3.44607E+000	3.44610E+000	-2.59453E-004	...........	-327.56
	463	1163.87	3.44608E+000	3.44605E+000	-2.56733E-004	...........	-327.56
	464	1166.38	3.44608E+000	3.44607E+000	-2.58093E-004	...........	-327.56
	465	1168.88	3.44608E+000	3.44608E+000	-2.57247E-004	...........	-327.56
	466	1171.39	3.44607E+000	3.44606E+000	-2.55127E-004	...........	-327.56
	467	1173.9	3.44607E+000	3.44605E+000	-2.60027E-004	...........	-327.56
	468	1176.41	3.44607E+000	3.44607E+000	-2.54180E-004	...........	-327.56
	469	1178.92	3.44606E+000	3.44606E+000	-2.65233E-004	...........	-327.56
	470	1181.43	3.44606E+000	3.44606E+000	-2.57200E-004	...........	-327.56
	471	1183.93	3.44606E+000	3.44607E+000	-2.62860E-004	...........	-327.56
	472	1186.44	3.44606E+000	3.44605E+000	-2.60960E-004	...........	-327.56
	473	1188.95	3.44606E+000	3.44607E+000	-2.64320E-004	...........	-327.56
	474	1191.46	3.44606E+000	3.44606E+000	-2.61167E-004	...........	-327.56
	475	1193.97	3.44606E+000	3.44608E+000	-2.64620E-004	...........	-327.56
	476	1196.48	3.44607E+000	3.44606E+000	-2.68667E-004	...........	-327.56
	477	1198.98	3.44607E+000	3.44604E+000	-2.63273E-004	...........	-327.56
	478	1201.49	3.44607E+000	3.44605E+000	-2.61153E-004	...........	-327.56
	479	1204	3.44606E+000	3.44607E+000	-2.64827E-004	...........	-327.56
	480	1206.51	3.44606E+000	3.44605E+000	-2.73353E-004	...........	-327.56
	481	1209.02	3.44605E+000	3.44605E+000	-2.76220E-004	...........	-327.56
	482	1211.53	3.44605E+000	3.44605E+000	-2.71733E-004	...........	-327.56
	483	1214.03	3.44605E+000	3.44605E+000	-2.70293E-004	...........	-327.56
	484	1216.54	3.44605E+000	3.44606E+000	-2.72340E-004	...........	-327.56
	485	1219.05	3.44605E+000	3.44604E+000	-2.72367E-004	...........	-327.56
	486	1221.56	3.44605E+000	3.44604E+000	-2.68280E-004	...........	-327.56
	487	1224.07	3.44605E+000	3.44605E+000	-2.66040E-004	...........	-327.56
	488	1226.58	3.44605E+000	3.44604E+000	-2.70940E-004	...........	-327.56
	489	1229.08	3.44605E+000	3.44604E+000	-2.65427E-004	...........	-327.56
	490	1231.59	3.44604E+000	3.44605E+000	-2.66013E-004	...........	-327.56
	491	1234.1	3.44604E+000	3.44606E+000	-2.68233E-004	...........	-327.56
	492	1236.61	3.44605E+000	3.44605E+000	-2.70887E-004	...........	-327.56
	493	1239.12	3.44605E+000	3.44606E+000	-2.70513E-004	...........	-327.56
	494	1241.63	3.44605E+000	3.44602E+000	-2.68453E-004	...........	-327.56
	495	1244.13	3.44605E+000	3.44607E+000	-2.63513E-004	...........	-327.56
	496	1246.64	3.44605E+000	3.44607E+000	-2.66673E-004	...........	-327.56
	497	1249.15	3.44605E+000	3.44604E+000	-2.71540E-004	...........	-327.56
	498	1251.66	3.44605E+000	3.44601E+000	-2.73587E-004	...........	-327.56
	499	1254.17	3.44605E+000	3.44604E+000	-2.71447E-004	...........	-327.56
	500	1256.68	3.44604E+000	3.44606E+000	-2.73153E-004	...........	-327.56
	501	1259.18	3.44604E+000	3.44601E+000	-2.70473E-004	...........	-327.56
	502	1261.69	3.44604E+000	3.44607E+000	-2.71713E-004	...........	-327.56
	503	1264.2	3.44604E+000	3.44605E+000	-2.77007E-004	...........	-327.56
	504	1266.71	3.44604E+000	3.44604E+000	-2.71847E-004	...........	-327.56
	505	1269.22	3.44604E+000	3.44604E+000	-2.74040E-004	...........	-327.56
	506	1271.73	3.44605E+000	3.44603E+000	-2.68860E-004	...........	-327.56
	507	1274.23	3.44604E+000	3.44603E+000	-2.68467E-004	...........	-327.56
	508	1276.74	3.44604E+000	3.44602E+000	-2.71467E-004	...........	-327.56
	509	1279.25	3.44603E+000	3.44603E+000	-2.69507E-004	...........	-327.56
	510	1281.76	3.44603E+000	3.44600E+000	-2.74720E-004	...........	-327.56
	511	1284.27	3.44602E+000	3.44604E+000	-2.71660E-004	...........	-327.56
	512	1286.78	3.44602E+000	3.44604E+000	-2.75220E-004	...........	-327.56
	513	1289.28	3.44602E+000	3.44603E+000	-2.71053E-004	...........	-327.56
	514	1291.79	3.44603E+000	3.44602E+000	-2.77913E-004	...........	-327.56
	515	1294.3	3.44603E+000	3.44603E+000	-2.74907E-004	...........	-327.56
	516	1296.81	3.44603E+000	3.44602E+000	-2.77367E-004	...........	-327.56
	517	1299.32	3.44603E+000	3.44601E+000	-2.74647E-004	...........	-327.56
	518	1301.83	3.44602E+000	3.44604E+000	-2.72013E-004	...........	-327.56
	519	1304.33	3.44602E+000	3.44603E+000	-2.71193E-004	...........	-327.56
	520	1306.84	3.44602E+000	3.44600E+000	-2.73067E-004	...........	-327.56
	521	1309.35	3.44602E+000	3.44601E+000	-2.66347E-004	...........	-327.56
	522	1311.86	3.44602E+000	3.44602E+000	-2.73673E-004	...........	-327.56
	523	1314.37	3.44602E+000	3.44605E+000	-2.76613E-004	...........	-327.56
	524	1316.88	3.44602E+000	3.44602E+000	-2.79753E-004	...........	-327.56
	525	1319.38	3.44602E+000	3.44602E+000	-2.79633E-004	...........	-327.56
	526	1321.89	3.44603E+000	3.44602E+000	-2.74113E-004	...........	-327.56
	527	1324.4	3.44603E+000	3.44602E+000	-2.72760E-004	...........	-327.56
	528	1326.91	3.44602E+000	3.44601E+000	-2.69547E-004	...........	-327.56
	529	1329.42	3.44602E+000	3.44599E+000	-2.73847E-004	...........	-327.56
	530	1331.93	3.44602E+000	3.44604E+000	-2.68153E-004	...........	-327.56
	531	1334.43	3.44602E+000	3.44603E+000	-2.79060E-004	...........	-327.56
	532	1336.94	3.44602E+000	3.44601E+000	-2.78387E-004	...........	-327.56
	533	1339.45	3.44602E+000	3.44600E+000	-2.78267E-004	...........	-327.56
	534	1341.96	3.44602E+000	3.44602E+000	-2.65087E-004	...........	-327.56
	535	1344.47	3.44602E+000	3.44602E+000	-2.72840E-004	...........	-327.56
	536	1346.98	3.44601E+000	3.44600E+000	-2.75380E-004	...........	-327.56
	537	1349.48	3.44601E+000	3.44600E+000	-2.74227E-004	...........	-327.56
	538	1351.99	3.44601E+000	3.44601E+000	-2.73253E-004	...........	-327.56
	539	1354.5	3.44601E+000	3.44602E+000	-2.76840E-004	...........	-327.56
	540	1357.01	3.44601E+000	3.44602E+000	-2.78080E-004	...........	-327.56
	541	1359.52	3.44601E+000	3.44601E+000	-2.86040E-004	...........	-327.56
	542	1362.03	3.44601E+000	3.44602E+000	-2.84027E-004	...........	-327.56
	543	1364.53	3.44602E+000	3.44602E+000	-2.78620E-004	...........	-327.56
	544	1367.04	3.44602E+000	3.44601E+000	-2.80607E-004	...........	-327.56
	545	1369.55	3.44602E+000	3.44601E+000	-2.78820E-004	...........	-327.56
	546	1372.06	3.44602E+000	3.44600E+000	-2.78773E-004	...........	-327.56
	547	1374.57	3.44601E+000	3.44597E+000	-2.80327E-004	...........	-327.56
	548	1377.08	3.44600E+000	3.44603E+000	-2.86447E-004	...........	-327.56
	549	1379.58	3.44600E+000	3.44600E+000	-2.82627E-004	...........	-327.56
	550	1382.09	3.44600E+000	3.44601E+000	-2.83847E-004	...........	-327.56
	551	1384.6	3.44600E+000	3.44599E+000	-2.77247E-004	...........	-327.56
	552	1387.11	3.44600E+000	3.44598E+000	-2.73547E-004	...........	-327.56
	553	1389.62	3.44600E+000	3.44599E+000	-2.80353E-004	...........	-327.56
	554	1392.13	3.44600E+000	3.44601E+000	-2.78267E-004	...........	-327.56
	555	1394.63	3.44599E+000	3.44600E+000	-2.77207E-004	...........	-327.56
	556	1397.14	3.44599E+000	3.44599E+000	-2.81007E-004	...........	-327.56
	557	1399.65	3.44600E+000	3.44600E+000	-2.77900E-004	...........	-327.56
	558	1402.16	3.44600E+000	3.44599E+000	-2.78880E-004	...........	-327.56
	559	1404.67	3.44600E+000	3.44598E+000	-2.78140E-004	...........	-327.56
	560	1407.18	3.44600E+000	3.44599E+000	-2.74120E-004	...........	-327.56
	561	1409.68	3.44599E+000	3.44598E+000	-2.83333E-004	...........	-327.56
	562	1412.19	3.44599E+000	3.44599E+000	-2.86413E-004	...........	-327.56
	563	1414.7	3.44598E+000	3.44601E+000	-2.85933E-004	...........	-327.56
	564	1417.21	3.44599E+000	3.44602E+000	-2.83253E-004	...........	-327.56
	565	1419.72	3.44599E+000	3.44599E+000	-2.85173E-004	...........	-327.56
	566	1422.23	3.44600E+000	3.44599E+000	-2.83000E-004	...........	-327.56
	567	1424.73	3.44600E+000	3.44597E+000	-2.80173E-004	...........	-327.56
	568	1427.24	3.44600E+000	3.44597E+000	-2.76327E-004	...........	-327.56
	569	1429.75	3.44599E+000	3.44600E+000	-2.78300E-004	...........	-327.56
	570	1432.26	3.44598E+000	3.44597E+000	-2.85720E-004	...........	-327.56
	571	1434.77	3.44598E+000	3.44601E+000	-2.81587E-004	...........	-327.56
	572	1437.28	3.44598E+000	3.44598E+000	-2.82900E-004	...........	-327.56
	573	1439.78	3.44599E+000	3.44597E+000	-2.84947E-004	...........	-327.56
	574	1442.29	3.44599E+000	3.44597E+000	-2.86267E-004	...........	-327.56
	575	1444.8	3.44598E+000	3.44598E+000	-2.89580E-004	...........	-327.56
	576	1447.31	3.44598E+000	3.44599E+000	-2.81920E-004	...........	-327.56
	577	1449.82	3.44598E+000	3.44598E+000	-2.83753E-004	...........	-327.56
	578	1452.33	3.44598E+000	3.44598E+000	-2.90620E-004	...........	-327.56
	579	1454.83	3.44598E+000	3.44597E+000	-2.94187E-004	...........	-327.56
	580	1457.34	3.44598E+000	3.44601E+000	-2.84227E-004	...........	-327.56
	581	1459.85	3.44598E+000	3.44598E+000	-2.84873E-004	...........	-327.56
	582	1462.36	3.44598E+000	3.44597E+000	-2.81233E-004	...........	-327.56
	583	1464.87	3.44598E+000	3.44597E+000	-2.84980E-004	...........	-327.56
	584	1467.38	3.44598E+000	3.44599E+000	-2.83627E-004	...........	-327.56
	585	1469.88	3.44598E+000	3.44597E+000	-2.84040E-004	...........	-327.56
	586	1472.39	3.44598E+000	3.44598E+000	-2.82567E-004	...........	-327.56
	587	1474.9	3.44598E+000	3.44598E+000	-2.86967E-004	...........	-327.56
	588	1477.41	3.44598E+000	3.44598E+000	-2.85900E-004	...........	-327.56
	589	1479.92	3.44598E+000	3.44599E+000	-2.88747E-004	...........	-327.56
	590	1482.43	3.44598E+000	3.44597E+000	-2.88600E-004	...........	-327.56
	591	1484.93	3.44598E+000	3.44597E+000	-2.82853E-004	...........	-327.56
	592	1487.44	3.44598E+000	3.44599E+000	-2.86100E-004	...........	-327.56
	593	1489.95	3.44598E+000	3.44601E+000	-2.85387E-004	...........	-327.56
	594	1492.46	3.44598E+000	3.44599E+000	-2.85673E-004	...........	-327.56
	595	1494.97	3.44599E+000	3.44595E+000	-2.87760E-004	...........	-327.56
	596	1497.48	3.44599E+000	3.44597E+000	-2.90707E-004	...........	-327.56
	597	1499.98	3.44598E+000	3.44597E+000	-2.85507E-004	...........	-327.56
	598	1502.49	3.44597E+000	3.44596E+000	-2.85280E-004	...........	-327.56
	599	1505	3.44597E+000	3.44598E+000	-2.86893E-004	...........	-327.56
	600	1507.51	3.44597E+000	3.44596E+000	-2.89807E-004	...........	-327.56
	601	1510.02	3.44597E+000	3.44597E+000	-2.89500E-004	...........	-327.56
	602	1512.53	3.44597E+000	3.44597E+000	-2.91220E-004	...........	-327.56
	603	1515.03	3.44597E+000	3.44596E+000	-2.92293E-004	...........	-327.56
	604	1517.54	3.44597E+000	3.44599E+000	-2.93953E-004	...........	-327.56
	605	1520.05	3.44597E+000	3.44595E+000	-2.91073E-004	...........	-327.56
	606	1522.56	3.44597E+000	3.44599E+000	-2.89313E-004	...........	-327.56
	607	1525.07	3.44597E+000	3.44595E+000	-2.94527E-004	...........	-327.56
	608	1527.58	3.44597E+000	3.44598E+000	-2.91260E-004	...........	-327.56
	609	1530.08	3.44597E+000	3.44597E+000	-2.86940E-004	...........	-327.56
	610	1532.59	3.44597E+000	3.44597E+000	-2.89627E-004	...........	-327.56
	611	1535.1	3.44597E+000	3.44599E+000	-2.88973E-004	...........	-327.56
	612	1537.61	3.44597E+000	3.44596E+000	-2.96773E-004	...........	-327.56
	613	1540.12	3.44597E+000	3.44596E+000	-2.96260E-004	...........	-327.56
	614	1542.63	3.44597E+000	3.44597E+000	-2.93660E-004	...........	-327.56
	615	1545.13	3.44597E+000	3.44596E+000	-2.95120E-004	...........	-327.56
	616	1547.64	3.44597E+000	3.44597E+000	-2.95433E-004	...........	-327.56
	617	1550.15	3.44597E+000	3.44595E+000	-2.91080E-004	...........	-327.56
	618	1552.66	3.44596E+000	3.44597E+000	-2.93487E-004	...........	-327.56
	619	1555.17	3.44596E+000	3.44595E+000	-2.92020E-004	...........	-327.56
	620	1557.68	3.44596E+000	3.44594E+000	-2.93713E-004	...........	-327.56
	621	1560.18	3.44596E+000	3.44598E+000	-2.94933E-004	...........	-327.56
	622	1562.69	3.44596E+000	3.44597E+000	-2.89753E-004	...........	-327.56
	623	1565.2	3.44596E+000	3.44595E+000	-2.94413E-004	...........	-327.56
	624	1567.71	3.44596E+000	3.44596E+000	-2.93007E-004	...........	-327.56
	625	1570.22	3.44596E+000	3.44595E+000	-2.95780E-004	...........	-327.56
	626	1572.73	3.44596E+000	3.44595E+000	-2.98233E-004	...........	-327.56
	627	1575.23	3.44596E+000	3.44595E+000	-2.94060E-004	...........	-327.56
	628	1577.74	3.44595E+000	3.44592E+000	-2.97087E-004	...........	-327.56
	629	1580.25	3.44595E+000	3.44594E+000	-3.00400E-004	...........	-327.56
	630	1582.76	3.44594E+000	3.44596E+000	-2.98547E-004	...........	-327.56
	631	1585.27	3.44594E+000	3.44596E+000	-2.93967E-004	...........	-327.56
	632	1587.78	3.44594E+000	3.44594E+000	-2.94907E-004	...........	-327.56
	633	1590.28	3.44595E+000	3.44594E+000	-2.92113E-004	...........	-327.56
	634	1592.79	3.44595E+000	3.44593E+000	-2.98300E-004	...........	-327.56
	635	1595.3	3.44595E+000	3.44597E+000	-3.04873E-004	...........	-327.56
	636	1597.81	3.44594E+000	3.44595E+000	-2.99360E-004	...........	-327.56
	637	1600.32	3.44594E+000	3.44594E+000	-2.98133E-004	...........	-327.56
	638	1602.83	3.44595E+000	3.44596E+000	-2.99973E-004	...........	-327.56
	639	1605.33	3.44595E+000	3.44594E+000	-2.98920E-004	...........	-327.56
	640	1607.84	3.44595E+000	3.44593E+000	-2.99540E-004	...........	-327.56
	641	1610.35	3.44595E+000	3.44596E+000	-3.00860E-004	...........	-327.56
	642	1612.86	3.44594E+000	3.44593E+000	-3.06140E-004	...........	-327.56
	643	1615.37	3.44594E+000	3.44593E+000	-3.07020E-004	...........	-327.56
	644	1617.88	3.44594E+000	3.44594E+000	-3.03147E-004	...........	-327.56
	645	1620.38	3.44594E+000	3.44595E+000	-3.06013E-004	...........	-327.56
	646	1622.89	3.44594E+000	3.44593E+000	-3.01533E-004	...........	-327.56
	647	1625.4	3.44594E+000	3.44594E+000	-3.03740E-004	...........	-327.56
	648	1627.91	3.44594E+000	3.44593E+000	-3.00853E-004	...........	-327.56
	649	1630.42	3.44594E+000	3.44593E+000	-3.00407E-004	...........	-327.56
	650	1632.93	3.44594E+000	3.44593E+000	-3.04373E-004	...........	-327.56
	651	1635.43	3.44593E+000	3.44594E+000	-3.03587E-004	...........	-327.56
	652	1637.94	3.44593E+000	3.44595E+000	-2.98453E-004	...........	-327.56
	653	1640.45	3.44593E+000	3.44596E+000	-2.97253E-004	...........	-327.56
	654	1642.96	3.44594E+000	3.44594E+000	-2.98420E-004	...........	-327.56
	655	1645.47	3.44594E+000	3.44591E+000	-3.03093E-004	...........	-327.56
	656	1647.98	3.44594E+000	3.44591E+000	-3.04107E-004	...........	-327.56
	657	1650.48	3.44593E+000	3.44594E+000	-2.98613E-004	...........	-327.56
	658	1652.99	3.44593E+000	3.44593E+000	-2.97400E-004	...........	-327.56
	659	1655.5	3.44592E+000	3.44594E+000	-2.99767E-004	...........	-327.56
	660	1658.01	3.44593E+000	3.44594E+000	-3.00120E-004	...........	-327.56
	661	1660.52	3.44593E+000	3.44593E+000	-3.00467E-004	...........	-327.56
	662	1663.03	3.44593E+000	3.44592E+000	-3.00420E-004	...........	-327.56
	663	1665.53	3.44594E+000	3.44594E+000	-3.01847E-004	...........	-327.56
	664	1668.04	3.44593E+000	3.44594E+000	-3.07573E-004	...........	-327.56
	665	1670.55	3.44593E+000	3.44593E+000	-3.03193E-004	...........	-327.56
	666	1673.06	3.44593E+000	3.44593E+000	-3.07613E-004	...........	-327.56
	667	1675.57	3.44593E+000	3.44596E+000	-3.05007E-004	...........	-327.56
	668	1678.08	3.44594E+000	3.44592E+000	-3.06900E-004	...........	-327.56
	669	1680.58	3.44594E+000	3.44594E+000	-3.06180E-004	...........	-327.56
	670	1683.09	3.44594E+000	3.44594E+000	-3.12533E-004	...........	-327.56
	671	1685.6	3.44594E+000	3.44594E+000	-3.07987E-004	...........	-327.56
	672	1688.11	3.44594E+000	3.44593E+000	-3.05760E-004	...........	-327.56
	673	1690.62	3.44594E+000	3.44593E+000	-3.06860E-004	...........	-327.56
	674	1693.13	3.44594E+000	3.44595E+000	-3.13520E-004	...........	-327.56
	675	1695.63	3.44594E+000	3.44594E+000	-3.09407E-004	...........	-327.56
	676	1698.14	3.44594E+000	3.44595E+000	-3.15187E-004	...........	-327.56
	677	1700.65	3.44594E+000	3.44594E+000	-3.13027E-004	...........	-327.56
	678	1703.16	3.44594E+000	3.44595E+000	-3.09100E-004	...........	-327.56
	679	1705.67	3.44595E+000	3.44594E+000	-3.13840E-004	...........	-327.56
	680	1708.18	3.44595E+000	3.44593E+000	-3.09913E-004	...........	-327.56
	681	1710.68	3.44594E+000	3.44593E+000	-3.12327E-004	...........	-327.56
	682	1713.19	3.44594E+000	3.44594E+000	-3.11073E-004	...........	-327.56
	683	1715.7	3.44594E+000	3.44591E+000	-3.06413E-004	...........	-327.56
	684	1718.21	3.44593E+000	3.44595E+000	-3.03273E-004	...........	-327.56
	685	1720.72	3.44593E+000	3.44596E+000	-3.01400E-004	...........	-327.56
	686	1723.23	3.44593E+000	3.44594E+000	-3.03300E-004	...........	-327.56
	687	1725.73	3.44594E+000	3.44594E+000	-3.08000E-004	...........	-327.56
	688	1728.24	3.44594E+000	3.44593E+000	-3.07760E-004	...........	-327.56
	689	1730.75	3.44594E+000	3.44595E+000	-3.09007E-004	...........	-327.56
	690	1733.26	3.44594E+000	3.44592E+000	-3.12380E-004	...........	-327.56
	691	1735.77	3.44594E+000	3.44590E+000	-3.13600E-004	...........	-327.56
	692	1738.28	3.44593E+000	3.44592E+000	-3.13100E-004	...........	-327.56
	693	1740.78	3.44592E+000	3.44593E+000	-3.12327E-004	...........	-327.56
	694	1743.29	3.44592E+000	3.44594E+000	-3.12233E-004	...........	-327.56
	695	1745.8	3.44592E+000	3.44595E+000	-3.14500E-004	...........	-327.56
	696	1748.31	3.44593E+000	3.44593E+000	-3.11180E-004	...........	-327.56
	697	1750.82	3.44593E+000	3.44591E+000	-3.07100E-004	...........	-327.56
	698	1753.33	3.44593E+000	3.44592E+000	-3.10467E-004	...........	-327.56
	699	1755.83	3.44593E+000	3.44591E+000	-3.08233E-004	...........	-327.56
	700	1758.34	3.44592E+000	3.44589E+000	-3.10153E-004	...........	-327.56
	701	1760.85	3.44592E+000	3.44595E+000	-3.06527E-004	...........	-327.56
	702	1763.36	3.44592E+000	3.44594E+000	-3.03007E-004	...........	-327.56
	703	1765.87	3.44592E+000	3.44591E+000	-3.09873E-004	...........	-327.56
	704	1768.38	3.44592E+000	3.44590E+000	-3.11060E-004	...........	-327.56
	705	1770.88	3.44592E+000	3.44590E+000	-3.08993E-004	...........	-327.56
	706	1773.39	3.44592E+000	3.44591E+000	-3.09760E-004	...........	-327.56
	707	1775.9	3.44591E+000	3.44593E+000	-3.12440E-004	...........	-327.56
	708	1778.41	3.44591E+000	3.44593E+000	-3.05733E-004	...........	-327.56
	709	1780.92	3.44591E+000	3.44593E+000	-3.10287E-004	...........	-327.56
	710	1783.43	3.44592E+000	3.44592E+000	-3.11887E-004	...........	-327.56
	711	1785.93	3.44593E+000	3.44591E+000	-3.15747E-004	...........	-327.56
	712	1788.44	3.44593E+000	3.44591E+000	-3.15227E-004	...........	-327.56
	713	1790.95	3.44592E+000	3.44590E+000	-3.07327E-004	...........	-327.56
	714	1793.46	3.44592E+000	3.44592E+000	-3.14433E-004	...........	-327.56
	715	1795.97	3.44591E+000	3.44592E+000	-3.10207E-004	...........	-327.56
	716	1798.48	3.44591E+000	3.44593E+000	-3.13793E-004	...........	-327.56
	717	1800.98	3.44592E+000	3.44589E+000	-3.11113E-004	...........	-327.56
EOC	QUANT	3.445915	Open Circuit (V)
PSTATMODEL	IQUANT	5	Pstat Model
PSTATSECTION	LABEL	REF3000-51199	Pstat Section
PSTATSERIALNO	LABEL	51199	Pstat Serial Number
CTRLMODE	IQUANT	1	Control Mode
ELECTROMETER	IQUANT	0	RE=0 or CS=1
IESTAB	IQUANT	0	I/E Stability
CASPEED	IQUANT	3	Control Amp Speed
CONVENTION	IQUANT	1	Current Convention
ICHRANGE	IQUANT	2	Ich Range
ICHRANGEMODE	TOGGLE	F	Ich Auto Range
ICHOFFSETENABLE	TOGGLE	T	Ich Offset Enable
ICHOFFSET	QUANT	0	Ich Offset (V)
ICHFILTER	IQUANT	3	Ich Filter
VCHRANGE	IQUANT	2	Vch Range
VCHRANGEMODE	TOGGLE	F	Vch Auto Range
VCHOFFSETENABLE	TOGGLE	T	Vch Offset Enable
VCHOFFSET	QUANT	0	Vch Offset (V)
VCHFILTER	IQUANT	3	Vch Filter
ACHRANGE	IQUANT	2	Ach Range
ACHOFFSETENABLE	TOGGLE	F	Ach Offset Enable
ACHOFFSET	QUANT	0	Ach Offset (V)
ACHFILTER	IQUANT	1	Ach Filter
IERANGELOWERLIMIT	IQUANT	2	I/E Range Lower Limit
IERANGEMODE	TOGGLE	F	I/E AutoRange
IERANGE	IQUANT	12	I/E Range
POSFEEDENABLE	TOGGLE	F	Positive Feedback IR Comp
POSFEEDRESISTANCE	QUANT	0	Positive Feedback Resistance (ohm)
ACHSELECT	IQUANT	4	Ach Select
SENSECABLEID	IQUANT	14	Sense Cable ID
PWRCABLEID	IQUANT	7	Power Cable ID
DCCALDATE	LABEL	1/28/2026	DC Calibration Date
ACCALDATE	LABEL	1/28/2026	AC Calibration Date
THERMOSELECT	IQUANT	1	Thermo Select
FRAMEWORKVERSION	LABEL	7.11.0	Framework Version
INSTRUMENTVERSION	LABEL	5.20	Instrument Version
COMMVERSION	LABEL	5.10	Communications Version
CPUPLDVERSION	LABEL	6.00	CPU PLD Version
CTRLPLDVERSION	LABEL	3.21	CTRL PLD Version
PSTATPLDVERSION	LABEL	0.00	PSTAT PLD Version
COMPLIANCEVOLTAGE	IQUANT	0	Compliance Voltage
ZCURVE	TABLE
	Pt	Time	Freq	Zreal	Zimag	Zsig	Zmod	Zphz	ZrealDrCor	ZimagDrCor	ZmodDrCor	ZphzDrCor	Idc	Vdc	IERange	Imod	Vmod	Temp	Ithd	Vthd	IHr1	IHi1	VHr1	VHi1	IHr2	IHi2	VHr2	VHi2	IHr3	IHi3	VHr3	VHi3	IHr4	IHi4	VHr4	VHi4	IHr5	IHi5	VHr5	VHi5	IHr6	IHi6	VHr6	VHi6	IHr7	IHi7	VHr7	VHi7	IHr8	IHi8	VHr8	VHi8	IHr9	IHi9	VHr9	VHi9	IHr10	IHi10	VHr10	VHi10
	#	s	Hz	ohm	ohm	V	ohm	deg	ohm	ohm	ohm	deg	A	V	#	A	V	degC	#	#	A	A	V	V	A	A	V	V	A	A	V	V	A	A	V	V	A	A	V	V	A	A	V	V	A	A	V	V	A	A	V	V	A	A	V	V	A	A	V	V
	0	1	10078.13	0.0294167	0.0252588	1	0.0387731	40.65124	0.0294167	0.0252588	0.0387731	40.65124	-0.0700267	3.442362	12	0.2227945	0.0086371	-327.5556	0.1241201	0.2458128	12.5444	-15.7882	0.7669139	-0.1515155	0.2296043	1.541359	-0.0693471	0.0600846	-1.632985	-0.753105	0.0010419	-0.145079	-0.5779887	0.3624383	-0.0562058	-0.0425339	0.0365822	-0.3214342	0.0397136	-0.0087223	-0.122233	-0.1029851	0.009402	-0.021506	0.0403211	-0.0024585	0.0020942	0.0066876	-0.0078516	0.0355812	-0.0067194	0.0002428	0.0103856	0.0213096	-0.0037889	0.0032773	-0.0545673	-0.0019325	-0.0023809	-0.0126603
	1	3	8015.625	0.0291868	0.02011	1	0.0354441	34.56717	0.0291868	0.02011	0.0354441	34.56717	-0.0669903	3.442378	12	0.3549974	0.0125813	-327.5556	0.0980453	0.1997919	-29.7498	12.13798	-1.113278	-0.2394028	-0.9341888	0.6870906	-0.0562148	-0.016046	-1.151337	2.380192	-0.1780253	0.0073963	-0.0173566	-0.7520981	0.0582398	-0.027421	-0.3876551	-0.7867001	0.0609021	-0.0667632	0.3151229	0.2415284	-0.01527	0.0455315	0.2533419	0.0652338	0.0014343	0.0360975	-0.1515154	0.0284842	-0.01076	-0.021281	-0.0499025	0.0253586	-0.0066917	-0.006888	0.0134257	-0.0136009	0.003144	0.0016086
	2	5	6328.125	0.0289612	0.0157124	1	0.0329489	28.48134	0.0289612	0.0157124	0.0329489	28.48134	-0.0656635	3.442348	12	0.3424167	0.0112816	-327.5556	0.0993894	0.1806586	-10.59415	29.12507	-0.7621962	0.6794717	0.7148375	0.9085091	-0.0071495	0.0499892	2.337523	-1.090178	0.1234578	0.076678	0.1443859	0.7319707	-0.0405442	0.0330403	0.8382756	0.0901147	0.0226182	0.0675502	-0.1367971	0.3626796	-0.0379423	0.0006759	0.1858298	0.1579074	-0.0096381	0.025656	-0.1135134	0.0833032	-0.0144114	-0.0101969	0.0084509	0.0460235	-0.0057383	0.003088	-0.0069135	0.0025226	-0.0008521	-0.0010659
	3	7	5015.625	0.0288474	0.0122264	1	0.0313314	22.96869	0.0288474	0.0122264	0.0313314	22.96869	-0.0630369	3.442383	12	0.3689512	0.0115593	-327.5556	0.0946511	0.1567439	-26.30163	20.57573	-1.009557	0.27457	-0.5217802	0.9050568	-0.0381675	0.0136528	0.7419165	2.573566	-0.07482	0.1052245	-0.6298603	-0.3451291	-0.0027297	-0.0422282	-0.9304918	0.2115533	-0.0440238	-0.0502071	0.2205073	-0.3368658	0.0324244	0.0046065	-0.0327568	-0.3121055	0.0252888	-0.0138819	0.138425	0.1093275	-0.0055037	0.0172536	0.0757197	0.0042931	0.0025208	0.008359	-0.0224486	0.0299898	-0.0043411	-0.0013885
	4	9	3984.375	0.0288	0.0094107	1	0.0302985	18.0953	0.0288	0.0094107	0.0302985	18.0953	-0.061383	3.442383	12	0.374265	0.0113394	-327.5556	0.0926852	0.1384462	-33.19026	-6.774653	-0.8931384	-0.5056149	-0.7060226	-0.689132	-0.0071032	-0.0342732	-1.854344	-1.913447	0.0029693	-0.112311	0.4613244	0.5326817	-0.0068666	0.0347698	0.5423703	0.817777	-0.0228128	0.0530508	-0.201608	-0.356548	0.0144546	-0.0234139	-0.111661	-0.3152513	0.0178092	-0.0182006	0.0549086	0.1785693	-0.0119423	0.01036	0.0069274	0.0883662	-0.0075052	0.0037749	-0.0133787	-0.0474993	0.0040386	-0.0029669
	5	10	3170.956	0.028826	0.0071122	1	0.0296904	13.85966	0.028826	0.0071122	0.0296904	13.85966	-0.0608434	3.442346	12	0.376372	0.0111745	-327.5556	0.0906011	0.1226715	13.59767	31.23377	0.1714461	0.996761	0.8801357	-0.3279922	0.0306356	0.0043066	-2.150311	-1.479757	-0.0270991	-0.0945335	0.0111433	-0.7038545	0.0227202	-0.0208631	-0.8793571	0.4588909	-0.0454117	-0.0204017	-0.3622272	-0.2126529	-0.0014407	-0.023814	-0.0269021	0.3462079	-0.0198084	0.0097697	-0.1744666	0.1001788	-0.0119082	-0.0075135	0.0787427	0.0567485	-0.0012774	0.0072303	0.0096007	0.0588369	-0.0042901	0.0027909
	6	12	2527.573	0.0289156	0.0052426	1	0.029387	10.27656	0.0289156	0.0052426	0.029387	10.27656	-0.059414	3.442354	12	0.3731589	0.0109659	-327.5556	0.0882042	0.1099392	-19.28173	27.7296	-0.7020024	0.7016354	-0.1811591	0.8491438	-0.0157092	0.0223084	2.083601	1.399959	0.033417	0.0802081	-0.5805304	0.375814	-0.0267218	-0.0035877	0.0733246	0.983185	-0.0288537	0.0321612	-0.3994042	-0.1512612	-0.006546	-0.0196302	-0.28024	0.2192191	-0.0183761	-0.0055532	-0.054104	-0.2052653	0.0083663	-0.0092589	-0.0963307	-0.0315798	-0.0012667	-0.0063164	0.033766	-0.0621579	0.0049299	-5.292893E-005
	7	14	1976.103	0.0290713	0.0035656	1	0.0292892	6.992352	0.0290713	0.0035656	0.0292892	6.992352	-0.0581392	3.442356	12	0.3698031	0.0108312	-327.5556	0.0845787	0.0976599	-3.65913	-33.27015	0.0112568	-0.980259	0.7109571	0.3524251	0.0171121	0.0166659	-0.2473882	2.349992	-0.0417926	0.0636797	0.6597705	-0.156906	0.0223801	0.0083387	0.4466264	0.8671933	-0.0083292	0.0367415	0.3083078	-0.3023344	0.018203	0.0001206	0.2992535	0.2069275	0.0019982	0.0167627	0.0583829	-0.2177256	0.0103275	-0.0044105	0.1101739	0.0115564	0.0029271	0.0052195	-0.0366	-0.0778744	0.0025971	-0.0043352
	8	16	1577.524	0.0292695	0.0022952	1	0.0293593	4.483827	0.0292695	0.0022952	0.0293593	4.483827	-0.0569784	3.442358	12	0.3607339	0.0105909	-327.5556	0.0807985	0.0883657	30.36983	11.98708	0.8617328	0.4198623	-0.0023718	-0.724903	0.0050988	-0.0209402	-0.1900212	2.163409	-0.0305564	0.0596254	-0.1410785	0.6388926	-0.0141444	0.0163314	0.3995622	-0.8529702	0.0285218	-0.0172339	0.2482254	-0.3647888	0.0159421	-0.0048382	-0.2767041	0.2318585	-0.014575	-0.0007696	-0.1981365	0.1266013	-0.0099607	-0.0023963	0.1079901	-0.0300052	0.0042257	0.0029544	0.0915595	-0.0300585	0.0039714	0.0025344
	9	18	1265.625	0.0295167	0.0012517	1	0.0295432	2.428305	0.0295167	0.0012517	0.0295432	2.428305	-0.0566651	3.442326	12	0.3546441	0.0104773	-327.5556	0.0752352	0.0789647	-18.24451	-26.40957	-0.5059799	-0.8020292	0.5900004	-0.1615825	0.0179212	-0.0017496	1.805075	0.7382332	0.0450373	0.0372193	-0.3045307	-0.5733471	-0.0016419	-0.020313	0.2888856	-0.8521722	0.0217378	-0.0202992	-0.3949759	0.2144871	-0.0156415	-0.001276	-0.3409548	-0.1199117	-0.0073035	-0.0111917	0.1267044	0.2207348	-0.0017878	0.0096555	-0.0409812	0.1093197	-0.0044367	0.002106	0.0881335	-0.0676444	0.004859	0.0007122
	10	20	998.264	0.0298135	0.0002983	1	0.029815	0.5733389	0.0298135	0.0002983	0.029815	0.5733389	-0.0560657	3.442317	12	0.3471681	0.0103508	-327.5556	0.0689162	0.0699092	15.85096	-27.13104	0.4802538	-0.8043867	-0.2389199	0.4344686	-0.0085402	0.0118437	-1.241429	-1.181946	-0.0277495	-0.0422027	-0.5201248	0.2912057	-0.0178356	0.0035713	-0.1580149	-0.831275	0.0053387	-0.0259638	-0.4477166	-0.0519803	-0.0122118	-0.0080056	0.1689196	-0.3144747	0.0102306	-0.0061629	-0.1940549	-0.1866354	-0.0018184	-0.0092865	0.1119731	-0.0454005	0.0043368	0.0012746	-0.0274246	-0.1249761	0.0023086	-0.0045307
	11	21	796.875	0.0301589	-0.0004735	1	0.0301627	-0.8994824	0.0301589	-0.0004735	0.0301627	-0.8994824	-0.0544995	3.442347	12	0.3394955	0.0102401	-327.5556	0.0619983	0.0613149	28.24516	-12.09949	0.8459592	-0.3786279	-0.3959835	-0.1034996	-0.0113516	-0.0038059	1.377924	-0.5120648	0.0421977	-0.0079751	0.2872329	-0.4373603	0.011399	-0.0106725	0.0189277	0.7799934	-0.0066589	0.0228865	0.2619977	0.3377516	0.0037102	0.0126815	-0.3325614	-0.1189207	-0.0079808	-0.0080639	-0.2591892	0.081094	-0.0087972	-0.0017271	0.0870037	-0.0969936	0.0043097	-0.0013361	-0.0012674	-0.1418581	0.0028659	-0.004199
	12	23	627.7902	0.0305624	-0.0011708	1	0.0305848	-2.19375	0.0305624	-0.0011708	0.0305848	-2.19375	-0.0540648	3.442338	12	0.3332978	0.0101938	-327.5556	0.0543523	0.0526369	-24.29064	-17.88835	-0.7634898	-0.5180265	0.2453753	-0.2280315	0.0076343	-0.0063999	1.177167	-0.3247041	0.0352864	-0.0053225	-0.4500281	-0.0680952	-0.0128076	-0.00449	-0.5730609	-0.3927137	-0.0138681	-0.0152692	0.2152261	0.3408886	0.0032396	0.0117631	0.0333334	0.3350941	-0.0025307	0.0098815	0.0847478	-0.2647814	0.0057385	-0.0067041	0.0949789	-0.0922022	0.0040205	-0.0015241	-0.1417594	0.0663506	-0.0051841	-0.000212
	13	25	505.5147	0.0309781	-0.0017285	1	0.0310263	-3.193625	0.0309781	-0.0017285	0.0310263	-3.193625	-0.0533833	3.44234	12	0.326493	0.0101299	-327.5556	0.0477147	0.0452909	-3.308068	29.36503	-0.0514829	0.9154031	0.0476748	0.2718546	0.0013331	0.008076	1.002394	-0.1788571	0.0297151	-0.0030026	0.0998755	0.3789992	0.0013604	0.0113518	0.5804182	-0.1905046	0.017879	-0.0025399	0.1514278	0.3369476	0.0021343	0.0107423	0.2778104	-0.1427122	0.0089655	-0.0017109	0.144272	0.2263985	0.0020723	0.0078483	0.1054429	-0.0728774	0.0038268	-0.0009756	0.1136366	0.1137456	0.0018456	0.0045099
	14	26	397.9953	0.0314969	-0.0022662	1	0.0315783	-4.115393	0.0314969	-0.0022662	0.0315783	-4.115393	-0.0531298	3.44232	12	0.3199573	0.0101037	-327.5556	0.0407485	0.0381664	28.92401	1.42771	0.914247	-0.0207669	-0.0557467	-0.2161288	-0.0016663	-0.0064278	0.2190726	0.7949078	0.0054723	0.0237653	0.1282536	0.306125	0.0030057	0.0095303	-0.247567	-0.4534486	-0.005527	-0.0139847	-0.1964867	-0.2601596	-0.004482	-0.0087019	0.1873707	0.2037915	0.0041089	0.0068467	0.1952981	0.1573341	0.0045984	0.0059791	-0.0994843	-0.0623192	-0.0023115	-0.0026472	-0.1500247	-0.0603069	-0.003688	-0.0033107
	15	28	315.5048	0.0320369	-0.0027054	1	0.0321509	-4.826997	0.0320369	-0.0027054	0.0321509	-4.826997	-0.0513037	3.442372	12	0.313009	0.0100635	-327.5556	0.0344506	0.0317498	10.94023	-26.13273	0.2796504	-0.8668536	-0.0813458	0.1567724	-0.0024147	0.004879	-0.4327831	-0.503831	-0.0127461	-0.0151274	-0.240132	0.1246948	-0.0072932	0.0035458	-0.0889735	-0.4230789	-0.0015618	-0.0125144	-0.2727345	-0.0050565	-0.0079291	-0.000941	0.0653016	-0.2368525	0.0030158	-0.0066409	-0.1953748	-0.1048648	-0.0051622	-0.0040179	0.07486	-0.0832706	0.0026083	-0.0018404	-0.0940448	-0.1215782	-0.0017366	-0.0041975
	16	30	252.4038	0.0326125	-0.0030659	1	0.0327563	-5.370679	0.0326125	-0.0030659	0.0327563	-5.370679	-0.0514053	3.442345	12	0.3065108	0.0100401	-327.5556	0.0289383	0.0265474	-12.67304	24.6784	-0.3375269	0.8437215	-0.0868929	0.1167836	-0.0024977	0.0038283	0.210675	0.4867828	0.0066802	0.0146689	-0.2218638	0.0153365	-0.0066432	0.0004644	-0.1042648	0.3418024	-0.003624	0.0099554	-0.1925774	-0.1352908	-0.0053959	-0.0045061	-0.1691428	0.1191826	-0.0054624	0.002914	-0.0555269	-0.1868819	-0.0008962	-0.0055767	-0.0944244	-0.0057442	-0.0026503	-0.0005307	0.0469587	-0.1321096	0.0019655	-0.0037252
	17	31	198.6229	0.0332686	-0.0033961	1	0.0334415	-5.82861	0.0332686	-0.0033961	0.0334415	-5.82861	-0.051142	3.442329	12	0.299538	0.010017	-327.5556	0.0237543	0.0214708	-2.458543	26.99938	0.0099924	0.9065799	0.0115329	0.1139688	0.0007257	0.0035409	0.4163113	0.0354206	0.0127785	0.0008233	-0.0061901	0.1810682	-8.96454E-005	0.0054882	0.2841408	0.0135465	0.0084964	0.0005314	-0.0002053	0.1913285	-0.0001163	0.0058377	0.1667379	-0.0034904	0.0047548	0.0003133	0.0102496	0.1665484	0.000141	0.0049829	0.0786498	-0.0058206	0.0023808	8.940697E-005	0.0195371	0.1201777	0.0001605	0.0034568
	18	33	158.3615	0.0339343	-0.003639	1	0.0341288	-6.120829	0.0339343	-0.003639	0.0341288	-6.120829	-0.0506582	3.44233	12	0.2933785	0.0100127	-327.5556	0.0194507	0.0174909	0.1368353	-26.55324	-0.0920572	-0.901555	0.0258432	0.0899366	0.0009406	0.0028162	-0.3247825	0.0402675	-0.0100775	0.0016828	0.0311501	0.1415153	0.0011368	0.0043361	-0.2214647	0.0642102	-0.0066828	0.0018923	0.0608763	0.1442501	0.0018992	0.0043809	-0.1192091	0.0628884	-0.0036621	0.0018513	0.0764207	0.115583	0.0021583	0.0035226	-0.0509765	0.0418917	-0.0016201	0.0011072	0.0752967	0.0694853	0.0020881	0.0021913
	19	35	125.558	0.0346534	-0.0038243	1	0.0348638	-6.297545	0.0346534	-0.0038243	0.0348638	-6.297545	-0.0499525	3.442336	12	0.286973	0.010005	-327.5556	0.0158116	0.0140991	22.37985	13.18266	0.8259757	0.3711841	0.0517091	-0.0511842	0.0015399	-0.0018027	-0.2573314	0.0163486	-0.0081065	0.0009675	-0.1085551	-0.0437227	-0.0035026	-0.0011091	0.117677	0.1382646	0.0037286	0.0041928	0.0348835	0.1221633	0.0011876	0.0037417	0.0198031	-0.1050788	0.0005702	-0.003186	0.065003	-0.0904876	0.0019729	-0.0026271	-0.0453389	0.02541	-0.0013453	0.0007036	-0.0860606	0.0112684	-0.0025994	0.0001056
	20	36	100.4464	0.0353592	-0.0039301	1	0.035577	-6.342292	0.0353592	-0.0039301	0.035577	-6.342292	-0.0490405	3.442353	12	0.2809756	0.0099963	-327.5556	0.0127595	0.0112353	23.74089	9.116265	0.8752992	0.2289945	0.0211383	-0.0562074	0.0005896	-0.0019106	-0.1750801	0.1006925	-0.0053303	0.0035659	-0.0895199	0.0213847	-0.0028625	0.0009511	0.1442381	0.013821	0.004508	0.0001402	0.0913201	0.0364673	0.0028055	0.0009968	-0.0665208	-0.0524589	-0.0019994	-0.0014656	-0.0506034	-0.0749291	-0.0016757	-0.0022936	0.0132185	0.0395037	0.000273	0.0012376	0.0014167	0.0683241	-5.8949E-005	0.0020194
	21	38	79.00281	0.0361474	-0.003956	1	0.0363632	-6.24564	0.0361474	-0.003956	0.0363632	-6.24564	-0.0491204	3.442326	12	0.2748297	0.0099937	-327.5556	0.0101122	0.0089705	-23.60854	7.835176	-0.8223754	0.3766497	-0.0431355	-0.0243329	-0.0015533	-0.0007828	-0.1277846	-0.0850907	-0.0044398	-0.0025163	0.0728308	0.012109	0.0023868	0.0003031	0.1111544	-0.0178787	0.0035448	-0.0005655	-0.0668907	0.0375852	-0.0019922	0.0013993	-0.0394589	0.0509681	-0.0011128	0.0015352	0.0198739	-0.0698209	0.0005209	-0.0022144	-0.0030673	-0.0308411	-6.979705E-005	-0.0007935	0.0245843	0.0474052	0.0008422	0.0014329
	22	40	63.3446	0.0368652	-0.003907	1	0.0370716	-6.049743	0.0368652	-0.003907	0.0370716	-6.049743	-0.048567	3.442333	12	0.2693097	0.0099838	-327.5556	0.0080905	0.0071033	-20.55388	-13.10287	-0.8089291	-0.4027084	0.025557	-0.0330966	0.0009615	-0.001231	0.1188638	0.0159763	0.0040491	0.0002444	-0.0451846	-0.0346991	-0.0013845	-0.0008783	-0.0356322	-0.0804101	-0.0012217	-0.0024295	-0.0123375	0.0597686	-0.0001562	0.0020263	-0.0288233	0.0390477	-0.0008498	0.0013559	0.0525064	-0.0190925	0.0016057	-0.000711	0.0251025	0.0042966	0.0008235	0.000149	-0.0359109	-0.0252548	-0.0010505	-0.000802
	23	42	49.86702	0.037599	-0.0037583	1	0.0377864	-5.708234	0.037599	-0.0037583	0.0377864	-5.708234	-0.0476533	3.442354	12	0.2637621	0.0099672	-327.5556	0.0063664	0.0055884	-10.58466	21.39828	-0.3175152	0.8444002	-0.0110213	0.0308908	-0.0003912	0.0010152	0.0159295	0.0927943	0.0008435	0.0031149	-0.0422758	-0.0098479	-0.0014474	-0.000227	-0.0391493	0.0536355	-0.0011027	0.0018458	-0.0192864	-0.0423826	-0.0007529	-0.0013435	-0.0374903	0.0026	-0.0011624	0.0001178	0.0165123	-0.0397371	0.0003991	-0.0013165	-0.0125103	-0.0124351	-0.0004749	-0.00037	0.0305907	-0.0136532	0.0008849	-0.0005231
	24	44	39.72458	0.0382605	-0.0035426	1	0.0384242	-5.289975	0.0382605	-0.0035426	0.0384242	-5.289975	-0.047995	3.442322	12	0.2585436	0.0099347	-327.5556	0.0050566	0.004478	-22.40246	6.761827	-0.8331872	0.3381253	-0.0254362	-0.0143489	-0.0008626	-0.0005662	-0.0539309	-0.0489212	-0.0020456	-0.0015584	0.0334954	0.0104633	0.0011339	0.0003252	0.0482489	0.0005319	0.0016422	-0.000174	-0.0386303	0.0030802	-0.0012143	0.0002536	-0.0211879	0.0142046	-0.0007002	0.0005174	0.0226018	-0.0283574	0.0006015	-0.0009775	0.0053411	-0.0126527	0.00017	-0.0004265	-0.000504	0.0251183	2.813339E-005	0.0007687
	25	46	31.6723	0.0388445	-0.0032719	1	0.0389821	-4.814669	0.0388445	-0.0032719	0.0389821	-4.814669	-0.0469597	3.442348	12	0.2523873	0.0098388	-327.5556	0.0039126	0.0035029	16.08136	-16.22391	0.5715764	-0.6828631	-0.0185003	0.0160135	-0.0006437	0.0005164	0.0406083	-0.0390219	0.0013583	-0.0015305	-0.0022804	-0.0246809	-0.0001712	-0.0008652	0.0259645	0.021267	0.000968	0.0006319	0.0300542	0.0007494	0.0010114	-0.0000954	-0.0154713	0.0157798	-0.0004814	0.0005343	0.0020118	0.026252	0.0001519	0.000864	-0.0070582	-0.0068276	-0.0002837	-0.0001888	-0.0167367	0.0038782	-0.0005372	0.0001577
	26	47	24.93351	0.0393811	-0.0029494	1	0.0394914	-4.283051	0.0393811	-0.0029494	0.0394914	-4.283051	-0.046856	3.442337	12	0.243611	0.0096207	-327.5556	0.0030486	0.0027307	-16.85585	14.21426	-0.6218694	0.6095141	-0.0175852	0.0149898	-0.0005665	0.0004542	-0.0357769	0.0234352	-0.0012975	0.0009136	0.0075574	-0.0169163	0.0001857	-0.0006459	-0.0083186	-0.0209903	-0.0003409	-0.0006864	0.0204579	0.0108033	0.0007544	0.0003054	0.0155244	-0.0026745	0.0005419	-0.0001365	-0.0111502	0.0140754	-0.0003219	0.0005035	-0.0001026	0.005227	-4.839898E-005	0.000185	-0.0091469	-0.0092456	-0.0003297	-0.000304
	27	49	19.86229	0.0398099	-0.0026284	1	0.0398965	-3.777336	0.0398099	-0.0026284	0.0398965	-3.777336	-0.0449172	3.442415	12	0.2714372	0.0108295	-327.5556	0.0025743	0.0022437	1.390209	-24.52833	-0.0091484	-0.980132	0.0166723	0.0179979	0.000535	0.0006769	-0.0337732	-0.0020025	-0.0011697	-5.710126E-005	-0.0018911	0.0180921	-6.079675E-005	0.0006637	-0.025319	-0.0077638	-0.0009396	-0.0001718	-0.0081298	0.0169664	-0.0002174	0.0006589	-0.0163229	-0.0041075	-0.0005851	-4.243852E-005	-0.0073788	0.0157993	-0.0001714	0.000528	-0.0069725	-0.0048291	-0.000206	-0.0001546	-0.0072443	0.0124653	-0.0001817	0.0003622
	28	51	15.83615	0.040153	-0.0023156	1	0.0402197	-3.300536	0.040153	-0.0023156	0.0402197	-3.300536	-0.0455873	3.442382	12	0.2489049	0.0100109	-327.5556	0.0020171	0.0017396	1.244998	-22.49388	-0.0021131	-0.906084	0.0168936	0.0025877	0.0005915	1.490116E-007	-0.0254657	-0.0074912	-0.0008903	-0.0002888	-0.002104	0.0087006	-8.177758E-005	0.000313	-0.0182722	-0.0108533	-0.0006795	-0.0003575	-0.0058166	0.0117309	-0.0001662	0.0004694	-0.0092937	-0.0053075	-0.0002415	-0.000212	-0.0095299	0.009294	-0.0001419	0.0003005	-0.0013822	-0.0042962	6.437302E-006	-0.0002413	-0.004232	0.005921	-5.364419E-005	0.0002041
	29	52	12.40079	0.0404476	-0.0019917	1	0.0404966	-2.819105	0.0404476	-0.0019917	0.0404966	-2.819105	-0.0439291	3.442436	12	0.246644	0.0099883	-327.5556	0.0017809	0.0015062	1.172054	-22.29288	0.0029919	-0.9040309	0.0158216	0.0144087	0.0003934	0.0004487	-0.0212507	0.0023367	-0.0007229	9.49502E-005	0.0002546	0.012702	-1.764298E-005	0.0004378	-0.0132408	0.0004759	-0.0005205	-0.0001526	-0.0035747	0.0097789	-1.931191E-005	0.0003905	-0.0078307	-0.0013001	-0.0003083	-8.380414E-005	-0.0047607	0.0085358	-0.0001557	0.0003356	-0.0044427	0.0002458	-0.0001755	7.18832E-005	-0.0044495	0.0046946	-0.0001309	0.0001884
	30	54	9.93114	0.0406617	-0.0017292	1	0.0406985	-2.435186	0.0406617	-0.0017292	0.0406985	-2.435186	-0.0448765	3.442391	12	0.2459755	0.0100108	-327.5556	0.0014046	0.0012047	1.112588	-22.23534	0.0067787	-0.9060529	0.016879	0.0024873	0.0005109	6.020069E-006	-0.0170797	-0.0052119	-0.0006263	-0.0002211	-0.0011937	0.0052826	-5.078317E-005	0.0001929	-0.0105513	-0.0063005	-0.0004213	-0.0002003	-0.0035518	0.0053084	-9.393693E-005	0.0002	-0.0069325	-0.0051549	-0.0002489	-0.0002124	-0.00401	0.0045766	-7.677079E-005	0.0001628	-0.0007601	-0.0046229	-4.577638E-005	-0.000154	-0.0023748	0.0027284	-6.484986E-005	0.0001166
	31	56	7.944915	0.0408191	-0.0014993	1	0.0408466	-2.103595	0.0408191	-0.0014993	0.0408466	-2.103595	-0.0443955	3.442396	12	0.2445132	0.0099875	-327.5556	0.001369	0.0011903	1.046344	-22.10606	0.009558	-0.9039187	0.0150443	0.0099075	0.0004392	0.0004491	-0.0139439	0.0041402	-0.0005112	0.000181	-0.0017816	0.0093884	-6.818772E-005	0.0003533	-0.0087984	0.0014235	-0.0002792	-1.728535E-006	-0.0028099	0.0084154	-5.865098E-005	0.0003397	-0.0060291	0.0003461	-0.0002351	-5.960465E-006	-0.0039145	0.0065903	-7.82013E-005	0.0002322	-0.0010345	-0.0018138	-6.27041E-005	-4.613401E-005	-0.0022476	0.0052656	-7.390977E-005	0.0001265
	32	58	6.317385	0.0409591	-0.0012914	1	0.0409794	-1.80591	0.0409578	-0.0012916	0.0409782	-1.806262	-0.0435619	3.442416	12	0.2441217	0.010004	-327.5556	0.0010076	0.0008216	0.995756	-22.07292	0.0122731	-0.905373	0.0155025	0.0032884	0.0004582	5.730987E-005	-0.0103772	-0.0007397	-0.0003748	-9.48906E-005	-0.0002172	0.0032974	-3.027916E-005	8.350611E-005	-0.0066799	-0.0022218	-0.0002561	-0.0001411	-3.315509E-005	0.0038727	7.152557E-006	0.0001616	-0.0034183	-0.0025	-0.000097	-0.0001098	-0.0018526	0.0034845	-9.536744E-006	0.0001281	-0.0010965	-0.0034402	-5.88894E-005	-0.000147	-0.0012369	0.0035725	-4.291535E-005	7.903576E-005
	33	60	5.008013	0.0410622	-0.0011236	1	0.0410776	-1.567456	0.0410597	-0.0011224	0.041075	-1.565879	-0.0440865	3.44239	12	0.2433419	0.0099959	-327.5556	0.0009575	0.000734	0.951904	-22.00422	0.0143573	-0.9046123	0.0168737	0.0035527	0.000479	3.871322E-005	-0.007356	-0.000203	-0.0002656	-9.334088E-005	-0.00027	0.0038757	-1.66893E-005	0.0001003	-0.0057124	-0.0007036	-0.0002153	-5.346538E-005	-8.52421E-005	0.0036303	-2.193451E-005	0.0001653	-0.0033409	-0.0006368	-9.107591E-005	-6.031991E-005	-0.0018096	0.002602	-5.435945E-005	0.0001321	-0.0011722	-0.0008245	-5.221368E-005	-4.494191E-005	-0.0009361	0.002692	-5.793572E-005	5.51939E-005
	34	63	3.945707	0.0411577	-0.0009822	1	0.0411694	-1.367067	0.0411495	-0.0009806	0.0411612	-1.365044	-0.0432175	3.442412	12	0.2430053	0.0100044	-327.5556	0.0008085	0.0005892	0.9105079	-21.97548	0.0158858	-0.9053547	0.0132414	0.0059622	0.0003483	0.0001704	-0.0059462	0.0024189	-0.0002105	1.066923E-005	0.0001093	0.0027733	1.716614E-005	0.0001227	-0.0040641	0.0001735	-0.0001686	-1.442432E-005	-0.0011027	0.0035267	3.576279E-006	0.0001424	-0.0027329	0.0010288	-7.128717E-005	-2.563E-005	-0.0011289	0.0024205	-1.811981E-005	0.0001012	-0.0011412	-0.0011812	-3.671647E-005	-3.361703E-005	-0.0008089	0.0026786	-1.28746E-005	8.118153E-005
	35	65	3.158693	0.0412245	-0.0008811	1	0.0412339	-1.224415	0.0412217	-0.0008821	0.0412311	-1.225813	-0.0434451	3.442387	12	0.2423877	0.0099946	-327.5556	0.0012267	0.0010183	0.8831947	-21.92064	0.0170915	-0.9044466	0.0229265	0.0115247	0.0007844	0.000388	-0.0026815	0.00245	-0.0001006	-2.408028E-005	0.0015265	0.0029087	2.884865E-005	8.577108E-005	-0.0031056	0.0008125	-0.0001307	-4.529954E-005	-0.0007166	0.0036021	3.480911E-005	0.0001304	-0.0019886	-0.0002267	-7.224084E-005	-0.0000974	-0.0018162	0.0025892	-2.741814E-005	8.571148E-005	0.0001443	-0.0013121	-1.120567E-005	-5.221368E-005	-0.0006403	0.0013714	-2.69413E-005	8.702278E-006
	36	68	2.504006	0.0412873	-0.0008027	1	0.0412951	-1.113817	0.0412816	-0.0008041	0.0412894	-1.11589	-0.042734	3.442404	12	0.2422761	0.0100048	-327.5556	0.0004714	0.0004428	0.8517724	-21.91178	0.0175757	-0.9053618	0.0061403	-0.0050086	4.887581E-005	-0.0002467	-0.0033338	-0.0029361	-0.0001159	-0.0002196	0.0002274	0.0021545	3.838539E-005	4.577637E-005	-0.0027115	-0.0001634	-9.107591E-005	-8.612872E-005	-0.0011769	0.0011188	2.145767E-006	4.202127E-005	-0.0015036	-0.0011122	-4.458428E-005	-8.666516E-005	-0.0004999	0.000826	-2.551079E-005	1.311302E-005	-0.0001473	-0.0015928	-1.263619E-005	-6.520749E-005	-0.0012094	0.0010877	-1.0252E-005	-2.145767E-006
	37	72	1.998082	0.0413465	-0.0007521	1	0.0413534	-1.042115	0.041342	-0.0007529	0.0413489	-1.043276	-0.0419578	3.442411	12	0.2414922	0.0099865	-327.5556	0.0004764	0.0004357	0.8478128	-21.84093	0.0186253	-0.9036842	0.0049639	-0.0013438	-3.19481E-005	-0.0001547	-0.0065154	-0.00245	-0.0002518	-0.0001747	-2.574176E-006	0.0042209	-2.789498E-005	0.0001215	-0.0023614	0.0007497	-8.773805E-005	-1.841784E-005	-0.0003451	0.0015006	2.217293E-005	8.022785E-005	-0.0013389	0.0004829	-5.626679E-005	-2.503395E-005	-0.0007568	0.0013477	1.430512E-006	2.884865E-005	-0.0001333	-0.0007352	7.867813E-006	-2.408028E-005	-0.0002018	0.0014736	-1.049042E-005	1.835823E-005
	38	78	1.584686	0.0414059	-0.0007276	1	0.0414123	-1.006663	0.041394	-0.0007278	0.0414004	-1.007333	-0.0413588	3.44242	12	0.2422516	0.0100322	-327.5556	0.0009607	0.0007904	0.9032542	-21.9075	0.0214593	-0.9077565	0.0068585	0.0166644	0.0001512	0.0005815	0.0044559	0.0082523	0.0002549	0.0002257	0.0037288	0.001224	0.0001252	-8.761884E-006	-0.0018911	-0.0008323	-5.50747E-005	-0.0000951	-0.0005286	0.0016239	1.907349E-006	2.729893E-005	-0.0017853	0.0004734	-6.53267E-005	-3.96967E-005	0.0004747	0.0010641	2.0504E-005	3.540516E-005	0.0001977	-0.0008267	3.33786E-006	-4.124642E-005	-0.000674	0.0015885	-1.835823E-005	9.417534E-006
	39	82	1.266892	0.0414641	-0.0007249	1	0.0414704	-1.001575	0.0414555	-0.000722	0.0414617	-0.997754	-0.0411791	3.442405	12	0.240653	0.00998	-327.5556	0.0010012	0.0008715	0.8574378	-21.76454	0.0197744	-0.9030684	0.0083444	0.0166762	0.0001578	0.0006282	0.0023796	-0.0022686	9.250641E-005	-0.0001783	-0.0054874	0.0062592	-0.0002477	0.0002006	0.0023976	0.002035	9.489059E-005	9.357929E-006	-0.0032926	0.0041719	-0.0001299	0.0001519	0.0012541	0.0013038	7.009506E-005	-1.072884E-005	-0.0015678	0.0010022	-4.291535E-005	2.777576E-005	-0.0001195	0.0011653	-1.835823E-005	2.193451E-005	-0.0005419	0.0011068	-2.43187E-005	8.940697E-006
	40	88	0.999041	0.0415181	-0.0007339	1	0.0415246	-1.01273	0.0415082	-0.0007345	0.0415147	-1.013774	-0.0401902	3.44242	12	0.2411201	0.0100124	-327.5556	0.0013475	0.0013178	0.8708268	-21.80633	0.0201497	-0.9059956	0.0128997	-0.0137031	0.0003555	-0.0006968	-0.0166288	0.0012681	-0.0006647	-1.096726E-005	-0.0075689	0.0109252	-0.0003567	0.0003642	-0.0042024	0.0013696	-0.0001402	-3.874303E-006	0.0017794	-0.0024167	0.0001235	-0.0001351	-0.0038147	-0.0029722	-0.0001266	-0.0001967	-0.0012138	0.0008628	-5.126E-005	-2.384186E-006	-0.0004325	-0.0006502	-1.907349E-006	-2.94447E-005	0.0002537	0.0010007	2.241135E-005	-2.467632E-005
	41	95	0.7923428	0.0415845	-0.000779	1	0.0415918	-1.073213	0.041574	-0.0007774	0.0415813	-1.071327	-0.0398298	3.442415	12	0.2402004	0.0099904	-327.5556	0.0016626	0.0018001	0.9108655	-21.72137	0.0209558	-0.903983	0.0155599	-0.0201485	0.0004494	-0.0010433	-0.0076367	-0.0192734	-0.0002749	-0.0009204	-0.0124139	-0.0017182	-0.0005295	-0.0001615	-0.0038656	-0.0013825	-0.0001366	-9.030105E-005	0.0051202	0.0033198	0.0002337	6.067753E-005	0.0008115	-0.0013509	2.574921E-005	-0.0001082	0.0001125	0.0033078	7.152557E-006	0.0001471	-0.0011908	-0.0005809	-2.980232E-005	-3.790856E-005	0.0003193	-0.0014785	2.288818E-005	-8.96454E-005
	42	102	0.6334459	0.0416568	-0.000829	1	0.041665	-1.140026	0.0416432	-0.0008296	0.0416515	-1.141332	-0.0391268	3.442421	12	0.240102	0.0100039	-327.5556	0.0013844	0.0011204	0.9231773	-21.71194	0.0204575	-0.9052142	0.0221033	0.0099086	0.000725	0.0002241	0.0057859	0.0084392	0.0002701	0.0002159	-0.0026395	-0.0080844	-0.0001538	-0.0004288	-0.0006694	0.007811	-8.344651E-006	0.0002099	-0.0047483	0.0024178	-0.000175	6.097555E-005	0.0002622	0.0045841	2.789497E-005	8.618832E-005	-0.0025015	0.0028566	-0.0000963	8.893013E-005	0.0029559	-0.0012946	0.0001094	-9.238721E-005	0.0007694	0.0022434	3.671646E-005	2.026558E-005
	43	112	0.5040323	0.0417422	-0.000905	1	0.041752	-1.242004	0.0417297	-0.0009055	0.0417395	-1.243073	-0.0385554	3.442415	12	0.2393529	0.0099935	-327.5556	0.001016	0.001202	0.981127	-21.64152	0.0213685	-0.9042536	-0.0073067	0.0042366	-0.0004196	2.872944E-005	0.0006497	-0.0044484	5.960464E-005	-0.0003281	-0.0073777	-0.0071762	-0.0003393	-0.0004116	0.0113168	-0.0037659	0.0005047	-0.0002845	-0.0071142	-0.0010618	-0.0002584	-7.140637E-005	-0.0050045	-0.004926	-0.000232	-0.0002759	0.0026749	0.0023017	0.0001318	4.374981E-005	0.0028584	-0.0046518	0.0001423	-0.00018	-0.0002358	0.0011574	-5.483628E-006	-5.006791E-006
	44	123	0.400641	0.0418341	-0.0010025	1	0.0418461	-1.372781	0.0418147	-0.0010017	0.0418267	-1.372312	-0.0379692	3.442416	12	0.2390664	0.010004	-327.5556	0.0022401	0.0020583	1.030375	-21.61328	0.0214367	-0.9052048	0.0241633	0.0209715	0.0008545	0.0006731	0.0044579	-0.0078522	0.000216	-0.0003971	-0.0250536	0.0043468	-0.0009854	0.0001005	-0.0092982	-0.0039673	-0.0003593	-0.0002703	-0.0009293	0.0102612	3.290176E-005	0.0003647	0.0023663	-0.0039325	9.083748E-005	-0.0002522	0.0180864	-0.0015992	0.0007589	-0.0001124	-0.0004821	0.0005358	1.263619E-005	-5.841256E-006	0.0004152	-0.0061616	6.437302E-006	-0.0003285
	45	135	0.316723	0.0419472	-0.0011235	1	0.0419623	-1.534177	0.0419318	-0.0011216	0.0419468	-1.532208	-0.0370296	3.442412	12	0.2383215	0.0100005	-327.5556	0.0014055	0.0012307	1.086184	-21.54304	0.0213592	-0.9048909	0.0083166	0.0033564	0.0002301	-8.371473E-005	-0.0049303	0.013615	-0.0001755	0.0004824	0.0122153	-0.0036049	0.0004776	-0.0002455	-0.0011006	0.0125298	-2.193451E-005	0.0003662	-0.0098638	0.0045485	-0.0003932	0.0001593	-0.0108387	-0.0034968	-0.000366	-0.0002031	0.0020455	0.0028167	0.000118	6.783009E-005	0.0022753	0.0033101	6.151199E-005	0.0001101	0.001541	-0.0055053	5.054474E-005	-0.0003201
	46	152	0.2520161	0.0420822	-0.0012567	1	0.0421009	-1.710562	0.042065	-0.001256	0.0420837	-1.710315	-0.036034	3.44241	12	0.2374549	0.009997	-327.5556	0.0014663	0.0012729	-0.3275409	-21.48947	-0.042393	-0.9038348	0.0179299	0.0094795	0.0006421	0.0001408	-0.0060619	0.0152623	-0.0002232	0.0005184	-0.0004638	-0.0099527	-3.480912E-005	-0.0004856	-0.0036122	0.0053728	-0.0001395	0.0001043	-0.0027012	-0.0047871	-8.130075E-005	-0.0002607	-0.0038035	0.0022458	-0.0001314	4.553795E-005	0.0035241	0.0083652	0.0001941	0.0002803	0.002794	-0.0027226	8.106232E-005	-0.0001501	0.0046957	-0.0012557	0.000217	-0.0001493
	47	174	0.2003205	0.0422067	-0.0014209	1	0.0422306	-1.928124	0.0421822	-0.0014196	0.042206	-1.927465	-0.0352476	3.44241	12	0.2368426	0.010002	-327.5556	0.0023272	0.0022489	0.0601934	-21.43646	-0.0291924	-0.9048054	0.015911	0.0166263	0.0005574	0.0002778	-0.0140852	0.0043648	-0.0005078	-6.335975E-005	0.0012373	-0.0089646	0.0000999	-0.0005018	0.0017706	-0.0212333	5.102158E-005	-0.0010567	0.0036621	0.0092832	0.0002191	0.0003074	-0.0197498	-0.0022831	-0.0007865	-0.000211	-0.0017806	-0.0055454	-3.957749E-005	-0.0003077	0.0075879	-0.019596	0.0003297	-0.0008951	0.0124894	0.0089121	0.0004892	0.00025
	48	196	0.1588983	0.0423574	-0.0016089	1	0.0423879	-2.175236	0.0423349	-0.0016087	0.0423655	-2.176189	-0.0342082	3.442401	12	0.2360855	0.0100072	-327.5556	0.0016262	0.0012189	0.3997551	-21.36428	-0.018451	-0.9055574	0.0093704	0.0143366	0.0002511	0.0001541	0.0079243	0.0104104	0.0003319	0.0001876	0.0102613	0.0004743	0.0004108	-0.0001499	-0.0051355	0.00595	-0.0001605	0.0001073	-0.0032048	0.0127914	-0.0000956	0.0004759	0.0001153	0.0086999	1.978874E-005	0.0002801	-0.0087511	-0.0004606	-0.0003536	-7.510186E-005	0.0058842	0.0006243	0.0002532	-3.004074E-005	-0.0048443	0.013814	-0.0001543	0.0004735
	49	228	0.1260081	0.0425159	-0.0018301	1	0.0425552	-2.464719	0.0424707	-0.0018286	0.04251	-2.465328	-0.0338625	3.442405	12	0.2348377	0.0099936	-327.5556	0.0018257	0.0016196	0.6861185	-21.244	-0.0105073	-0.9044533	0.0056389	0.011148	0.0001388	-0.0001563	0.0072926	0.019815	0.000371	0.0004632	0.0070749	0.0022566	0.0003474	-0.0001651	0.0024268	0.0037997	0.0001512	-7.659198E-005	0.0120187	0.008426	0.0005715	0.0002192	-0.0071486	-0.0180699	-0.0002894	-0.0008972	0.0039659	0.0014608	0.0002024	-6.103517E-005	-0.0012778	0.0001656	-3.862382E-005	-8.678437E-005	0.0040074	0.0141368	0.0001969	0.0004666
	50	259	0.1001603	0.0427308	-0.0020923	1	0.042782	-2.803199	0.0426568	-0.002087	0.0427079	-2.801007	-0.0343639	3.442405	12	0.2337939	0.0100022	-327.5556	0.0021775	0.0010424	0.962672	-21.1387	-0.0037291	-0.905285	0.0056157	0.0287114	0.0003021	0.0001207	-0.0106282	0.0168599	-0.0003178	8.374453E-005	-0.0009394	0.0065186	7.867813E-006	-0.0001533	0.0003759	0.0129124	0.0000978	0.0001448	-0.0003651	0.0034728	5.00679E-005	-0.0001202	0.0026506	0.0099564	0.0001559	0.0001576	0.0001822	0.0037554	5.340576E-005	-5.483628E-005	-0.0054257	0.0054568	-0.0001936	4.923344E-005	-0.0088863	0.0197235	-0.0003095	0.0006442
	51	306	0.0794492	0.0429921	-0.002395	1	0.0430588	-3.188537	0.0428429	-0.0023819	0.0429091	-3.182213	-0.0357383	3.442397	12	0.2322324	0.0099996	-327.5556	0.0030332	0.0011077	1.212232	-20.98429	0.001354	-0.9050634	0.0032915	0.0403092	0.00033	-8.273126E-005	0.005526	0.0299154	0.0004649	0.0001786	-0.0072513	0.0153373	-0.0001535	-0.0001374	-0.0025509	0.0159802	3.576279E-006	3.606081E-005	-0.0066139	0.0088146	-0.0001721	-0.0001351	-0.0038681	0.0252853	-4.458428E-005	0.0005648	-0.0014194	0.0126769	5.865097E-005	0.0001543	-0.0024697	0.0029419	-4.029275E-005	-0.0002012	0.0007837	-0.0002501	0.0001109	-0.0003835
	52	346	0.0631739	0.0431569	-0.0027688	1	0.0432456	-3.670934	0.0431074	-0.002763	0.0431958	-3.667351	-0.0310752	3.442391	12	0.2313369	0.0100043	-327.5556	0.001554	0.0010167	1.474731	-20.88623	0.0054123	-0.9054698	0.0125098	0.021999	0.0006895	1.221895E-006	-0.0026379	0.007417	3.98159E-005	-0.0001299	-0.0047859	0.0073807	-0.0001428	3.743172E-005	0.0036667	0.0048456	0.0002017	-4.035235E-005	-0.0062178	0.0030279	-0.0002103	-2.139807E-005	-0.0075715	-0.0002467	-0.0002851	-0.00016	0.0060649	0.0071306	0.0002697	0.000156	-0.0032466	0.0060517	-0.0001211	0.0001407	-3.293158E-006	0.0014147	1.835823E-005	-7.808209E-005
	53	412	0.0501337	0.043417	-0.0032154	1	0.0435359	-4.235565	0.0433641	-0.0032087	0.0434827	-4.231845	-0.0289548	3.44239	12	0.2297006	0.0100002	-327.5556	0.0014963	0.001176	1.7373	-20.71741	0.0084941	-0.9050771	0.0071803	0.0205558	0.0006154	-0.0001742	-0.0062929	0.011082	-2.646446E-005	1.549721E-005	-0.002055	0.007106	-6.198884E-006	4.61936E-005	0.0043726	-0.0016872	0.0002282	-0.0003091	0.0050453	0.0078905	0.0002797	0.0001648	-0.0073943	0.0007074	-0.0002949	-0.0001264	-0.0057109	-0.0066023	-0.0002315	-0.000433	-0.0040493	-0.0040287	-0.0001602	-0.0003015	-0.0012892	0.0010894	-3.147125E-005	-7.891656E-005
	54	474	0.0398258	0.0437322	-0.0037479	1	0.0438925	-4.89831	0.0436848	-0.003741	0.0438447	-4.894691	-0.0267532	3.442392	12	0.2278725	0.0100019	-327.5556	0.0014423	0.0006985	2.018129	-20.52569	0.0110765	-0.9052014	-0.0006156	0.0226144	0.0003686	-5.88596E-005	-0.0089498	0.009194	-0.0001032	-4.47631E-005	-0.0005793	0.0020219	0.0001023	-0.0001232	0.0014331	0.0111195	0.0001523	0.0002611	-0.0023288	0.002587	-6.842614E-005	-3.439189E-005	-0.0052232	-0.0007618	-0.0001864	-0.0001954	0.0003764	0.0005082	3.242493E-005	-0.0000982	0.0030169	0.0050375	0.0001504	0.0001098	0.0003969	0.0018272	5.173683E-005	-6.258489E-005
	55	576	0.0316296	0.0441134	-0.0043844	1	0.0443307	-5.675985	0.0440608	-0.0043733	0.0442774	-5.668417	-0.0241706	3.442392	12	0.2255875	0.0100005	-327.5556	0.0017648	0.0006149	2.313929	-20.28631	0.0129304	-0.905046	-0.0055811	0.03083	0.0002949	0.0001421	-0.0069109	0.007921	4.768372E-005	-0.0001162	-0.0031384	0.0036836	3.290176E-005	-7.855893E-005	-0.0028873	0.0050678	-4.339219E-005	5.960464E-007	0.0027602	0.0016583	0.000144	-7.396937E-005	0.0016323	0.0011308	9.417534E-005	-0.0001007	0.0012782	0.0057778	9.465218E-005	0.0001125	0.0023538	0.0092301	0.00015	0.0002573	0.0026045	0.001391	0.0001247	-8.118154E-005
	56	704	0.0251206	0.0445836	-0.005135	1	0.0448783	-6.570259	0.0445314	-0.0051235	0.0448251	-6.563219	-0.0214769	3.442388	12	0.2228565	0.0100014	-327.5556	0.0019136	0.0007422	2.633604	-19.998	0.0145652	-0.9051081	-0.0071293	0.03155	0.0004597	0.0000981	-0.0101468	0.0111245	4.529953E-006	6.431341E-005	0.0003224	0.0018817	0.0001945	-0.0001314	-0.0046618	0.0054639	-0.0001199	3.59416E-005	0.0031444	0.0018687	0.0001864	-5.626679E-005	-0.0000968	0.0077922	1.931191E-005	0.0001694	-0.0006394	0.0040346	5.483627E-006	3.433228E-005	-0.001006	0.0048455	-3.623963E-005	7.820129E-005	-0.0067475	0.0009397	-0.0002666	-9.381772E-005
	57	866	0.0199553	0.0451455	-0.0060046	1	0.045543	-7.576173	0.0450835	-0.005989	0.0454795	-7.566954	-0.0195282	3.442385	12	0.2196607	0.010004	-327.5556	0.0019572	0.0005659	2.962976	-19.65939	0.0155916	-0.9053259	-0.0126309	0.0314106	0.0003946	6.586313E-006	-0.0105407	0.0095074	8.130074E-005	-3.361703E-005	-0.0059145	0.0052402	-5.960465E-005	3.778934E-005	-0.0058939	0.0047491	-0.0001466	1.764298E-005	0.000974	0.0014371	7.534027E-005	-8.982421E-005	0.0018251	-0.0003022	6.198883E-005	-0.0002198	-0.0018324	0.0035392	-6.222726E-005	-7.152558E-006	-0.0010658	0.0031896	-5.960465E-006	-3.314019E-005	7.003825E-005	0.0036256	3.671646E-005	-9.536744E-007
	58	1018	0.0158522	0.0458315	-0.0070009	1	0.0463632	-8.684962	0.0457718	-0.0069815	0.0463011	-8.672436	-0.0172516	3.442377	12	0.2157282	0.0100018	-327.5556	0.0021402	0.0006553	3.299126	-19.24475	0.0163727	-0.9051152	-0.0180133	0.0327459	0.0004516	5.823374E-005	-0.0139025	0.0083156	-2.503395E-005	-1.192093E-005	-0.0041489	0.0010813	7.70092E-005	-0.0001233	-0.0039172	0.0006903	-0.0000975	-0.0001153	0.0004646	0.0030627	5.745888E-005	-1.853705E-005	3.097579E-005	0.00248	7.867813E-006	-6.926061E-005	-0.0039247	0.0023304	-0.0001552	-7.832051E-005	-0.0028536	0.0015651	-0.0001216	-8.153916E-005	-0.0023725	0.0002825	-0.000097	-0.000174
	59	1273	0.0125907	0.0466655	-0.0081087	1	0.0473647	-9.85743	0.0465928	-0.0080857	0.0472892	-9.84501	-0.0151059	3.442378	12	0.2112559	0.0100061	-327.5556	0.0024874	0.0005206	3.627655	-18.77342	0.016978	-0.9054878	-0.0228639	0.0356746	0.0003355	0.0001262	-0.0134733	0.0050897	5.626678E-005	-4.762412E-005	-0.0101042	0.0009729	-0.0001557	-9.435416E-005	-0.0026204	0.0039623	-3.528596E-005	3.874302E-005	0.0012678	0.005684	5.102158E-005	5.805492E-005	0.0016032	0.0067534	8.08239E-005	3.755093E-005	-0.0046897	0.0028951	-0.0001667	-4.875661E-005	-0.0010371	0.0026982	-4.315377E-005	-6.127358E-005	-0.0012705	0.0033281	-1.621246E-005	-5.054475E-005
	60	1513	0.0100011	0.0476487	-0.0093508	1	0.0485575	-11.10288	0.0475796	-0.0093269	0.0484852	-11.09089	-0.012623	3.442376	12	0.2059361	0.0099998	-327.5556	0.0024085	0.0004756	3.943533	-18.21727	0.0174949	-0.9049051	-0.0273653	0.0305921	0.0003784	-7.697941E-005	-0.0137718	0.0025098	1.311302E-005	-1.221895E-005	-0.005377	0.0001129	3.790855E-005	-5.805493E-005	-3.58522E-005	0.0044072	3.528595E-005	5.751848E-005	0.0006648	0.0051011	3.433228E-005	5.733967E-005	0.0021057	0.0028604	6.532669E-005	-0.0000964	-0.0012775	0.0038514	-3.671647E-005	-3.826619E-005	-0.0009787	0.0047271	-1.28746E-005	0	-0.0008895	0.0025887	-1.215935E-005	-7.29561E-005
