EXPLAIN
TAG	EISPOT
TITLE	LABEL	30Q_3_2C	Test &Identifier
DATE	LABEL	6/26/2026	Date
TIME	LABEL	15:32:12	Time
NOTES	NOTES	6	&Notes...
	Potentiostatic EIS Data Test preformed on a 30Q battery.
	- 10 AC mV rms preformed on 6/26/26
	- 30Q_3_2C
	- Custom Battery Holder Tray. Wood Base w/ reference aligator clips connected to center of banana plug.
	- No Floating Ground
	- No Faraday Cage
PSTAT	PSTAT	REF3000-51199	Potentiostat
VDC	POTEN	0.00000E+000	T	DC &Voltage (V)
FREQINIT	QUANT	1.00000E+004	Initial Fre&q. (Hz)
FREQFINAL	QUANT	1.00000E-002	Final Fre&q. (Hz)
PTSPERDEC	QUANT	1.00000E+001	Points/&decade
VAC	QUANT	1.00000E+001	AC &Voltage (mV rms)
AREA	QUANT	2.54000E+000	&Area (cm^2)
CONDIT	TWOPARAM	F	1.50000E+001	0.00000E+000	Conditionin&g	Time(s)	E(V)
DELAY	TWOPARAM	T	1.80000E+003	0.00000E+000	Init. De&lay	Time(s)	Stab.(mV/s)
SPEED	SELECTOR	1	&Optimize for:
THD	SELECTOR	1	T&HD
DRIFTCOR	SELECTOR	1	&Drift Correction
ZGUESS	QUANT	1.00000E-001	E&stimated Z (ohms)
OCVCURVE	TABLE	718
	Pt	T	Vf	Vm	Ach	Over	Temp
	#	s	V vs. Ref.	V	V	bits	deg C
	0	2.50833	3.44594E+000	3.44594E+000	-3.76307E-004	...........	-327.56
	1	5.01667	3.44593E+000	3.44558E+000	-3.72773E-004	...........	-327.56
	2	7.525	3.44589E+000	3.44550E+000	-3.68573E-004	...........	-327.56
	3	10.0333	3.44581E+000	3.44546E+000	-3.63913E-004	...........	-327.56
	4	12.5417	3.44568E+000	3.44544E+000	-3.65500E-004	...........	-327.56
	5	15.05	3.44557E+000	3.44543E+000	-3.68293E-004	...........	-327.56
	6	17.5583	3.44549E+000	3.44540E+000	-3.65540E-004	...........	-327.56
	7	20.0667	3.44545E+000	3.44541E+000	-3.65253E-004	...........	-327.56
	8	22.575	3.44542E+000	3.44539E+000	-3.70487E-004	...........	-327.56
	9	25.0833	3.44541E+000	3.44539E+000	-3.63433E-004	...........	-327.56
	10	27.5917	3.44540E+000	3.44539E+000	-3.67793E-004	...........	-327.56
	11	30.1	3.44540E+000	3.44541E+000	-3.68453E-004	...........	-327.56
	12	32.6083	3.44539E+000	3.44539E+000	-3.70780E-004	...........	-327.56
	13	35.1167	3.44539E+000	3.44539E+000	-3.68373E-004	...........	-327.56
	14	37.625	3.44540E+000	3.44539E+000	-3.67647E-004	...........	-327.56
	15	40.1333	3.44540E+000	3.44539E+000	-3.63167E-004	...........	-327.56
	16	42.6417	3.44539E+000	3.44542E+000	-3.62867E-004	...........	-327.56
	17	45.15	3.44539E+000	3.44541E+000	-3.63620E-004	...........	-327.56
	18	47.6583	3.44540E+000	3.44541E+000	-3.67027E-004	...........	-327.56
	19	50.1667	3.44541E+000	3.44542E+000	-3.68840E-004	...........	-327.56
	20	52.675	3.44541E+000	3.44541E+000	-3.67227E-004	...........	-327.56
	21	55.1833	3.44541E+000	3.44541E+000	-3.63427E-004	...........	-327.56
	22	57.6917	3.44541E+000	3.44543E+000	-3.66560E-004	...........	-327.56
	23	60.2	3.44542E+000	3.44541E+000	-3.69887E-004	...........	-327.56
	24	62.7083	3.44542E+000	3.44541E+000	-3.69493E-004	...........	-327.56
	25	65.2167	3.44542E+000	3.44541E+000	-3.66567E-004	...........	-327.56
	26	67.725	3.44542E+000	3.44541E+000	-3.71473E-004	...........	-327.56
	27	70.2333	3.44542E+000	3.44543E+000	-3.67153E-004	...........	-327.56
	28	72.7417	3.44542E+000	3.44541E+000	-3.65307E-004	...........	-327.56
	29	75.25	3.44542E+000	3.44543E+000	-3.67673E-004	...........	-327.56
	30	77.7583	3.44542E+000	3.44541E+000	-3.65367E-004	...........	-327.56
	31	80.2667	3.44542E+000	3.44540E+000	-3.68567E-004	...........	-327.56
	32	82.775	3.44542E+000	3.44541E+000	-3.69247E-004	...........	-327.56
	33	85.2833	3.44541E+000	3.44541E+000	-3.63967E-004	...........	-327.56
	34	87.7917	3.44541E+000	3.44540E+000	-3.66193E-004	...........	-327.56
	35	90.3	3.44541E+000	3.44540E+000	-3.64233E-004	...........	-327.56
	36	92.8083	3.44541E+000	3.44541E+000	-3.64733E-004	...........	-327.56
	37	95.317	3.44540E+000	3.44540E+000	-3.63247E-004	...........	-327.56
	38	97.825	3.44540E+000	3.44538E+000	-3.64160E-004	...........	-327.56
	39	100.333	3.44540E+000	3.44537E+000	-3.67353E-004	...........	-327.56
	40	102.842	3.44539E+000	3.44539E+000	-3.69913E-004	...........	-327.56
	41	105.35	3.44539E+000	3.44540E+000	-3.65313E-004	...........	-327.56
	42	107.858	3.44538E+000	3.44539E+000	-3.56587E-004	...........	-327.56
	43	110.367	3.44538E+000	3.44537E+000	-3.60660E-004	...........	-327.56
	44	112.875	3.44539E+000	3.44536E+000	-3.61353E-004	...........	-327.56
	45	115.383	3.44538E+000	3.44537E+000	-3.62673E-004	...........	-327.56
	46	117.892	3.44538E+000	3.44537E+000	-3.60213E-004	...........	-327.56
	47	120.4	3.44537E+000	3.44536E+000	-3.59687E-004	...........	-327.56
	48	122.908	3.44537E+000	3.44536E+000	-3.57027E-004	...........	-327.56
	49	125.417	3.44536E+000	3.44536E+000	-3.64107E-004	...........	-327.56
	50	127.925	3.44536E+000	3.44537E+000	-3.66040E-004	...........	-327.56
	51	130.433	3.44536E+000	3.44536E+000	-3.65047E-004	...........	-327.56
	52	132.942	3.44536E+000	3.44537E+000	-3.64880E-004	...........	-327.56
	53	135.45	3.44536E+000	3.44536E+000	-3.59980E-004	...........	-327.56
	54	137.958	3.44536E+000	3.44538E+000	-3.63380E-004	...........	-327.56
	55	140.467	3.44537E+000	3.44536E+000	-3.62713E-004	...........	-327.56
	56	142.975	3.44537E+000	3.44535E+000	-3.63180E-004	...........	-327.56
	57	145.483	3.44537E+000	3.44537E+000	-3.61100E-004	...........	-327.56
	58	147.992	3.44537E+000	3.44536E+000	-3.59740E-004	...........	-327.56
	59	150.5	3.44536E+000	3.44536E+000	-3.62433E-004	...........	-327.56
	60	153.008	3.44537E+000	3.44539E+000	-3.59000E-004	...........	-327.56
	61	155.517	3.44537E+000	3.44538E+000	-3.60560E-004	...........	-327.56
	62	158.025	3.44537E+000	3.44540E+000	-3.62060E-004	...........	-327.56
	63	160.533	3.44538E+000	3.44539E+000	-3.65627E-004	...........	-327.56
	64	163.042	3.44538E+000	3.44538E+000	-3.67367E-004	...........	-327.56
	65	165.55	3.44539E+000	3.44539E+000	-3.67327E-004	...........	-327.56
	66	168.058	3.44539E+000	3.44539E+000	-3.67940E-004	...........	-327.56
	67	170.567	3.44539E+000	3.44538E+000	-3.62007E-004	...........	-327.56
	68	173.075	3.44539E+000	3.44535E+000	-3.56907E-004	...........	-327.56
	69	175.583	3.44538E+000	3.44536E+000	-3.61633E-004	...........	-327.56
	70	178.092	3.44537E+000	3.44535E+000	-3.64233E-004	...........	-327.56
	71	180.6	3.44536E+000	3.44536E+000	-3.65160E-004	...........	-327.56
	72	183.108	3.44536E+000	3.44535E+000	-3.69793E-004	...........	-327.56
	73	185.617	3.44535E+000	3.44535E+000	-3.66727E-004	...........	-327.56
	74	188.125	3.44535E+000	3.44539E+000	-3.66033E-004	...........	-327.56
	75	190.633	3.44536E+000	3.44534E+000	-3.65780E-004	...........	-327.56
	76	193.142	3.44536E+000	3.44535E+000	-3.67780E-004	...........	-327.56
	77	195.65	3.44536E+000	3.44535E+000	-3.68640E-004	...........	-327.56
	78	198.158	3.44536E+000	3.44536E+000	-3.68233E-004	...........	-327.56
	79	200.667	3.44535E+000	3.44536E+000	-3.67600E-004	...........	-327.56
	80	203.175	3.44535E+000	3.44536E+000	-3.64747E-004	...........	-327.56
	81	205.683	3.44536E+000	3.44537E+000	-3.64460E-004	...........	-327.56
	82	208.192	3.44536E+000	3.44536E+000	-3.64027E-004	...........	-327.56
	83	210.7	3.44536E+000	3.44537E+000	-3.65273E-004	...........	-327.56
	84	213.208	3.44536E+000	3.44535E+000	-3.67787E-004	...........	-327.56
	85	215.717	3.44537E+000	3.44538E+000	-3.67513E-004	...........	-327.56
	86	218.225	3.44537E+000	3.44539E+000	-3.70680E-004	...........	-327.56
	87	220.733	3.44537E+000	3.44535E+000	-3.65593E-004	...........	-327.56
	88	223.242	3.44537E+000	3.44537E+000	-3.66640E-004	...........	-327.56
	89	225.75	3.44537E+000	3.44536E+000	-3.65367E-004	...........	-327.56
	90	228.258	3.44537E+000	3.44537E+000	-3.65487E-004	...........	-327.56
	91	230.767	3.44537E+000	3.44538E+000	-3.65267E-004	...........	-327.56
	92	233.275	3.44537E+000	3.44537E+000	-3.62307E-004	...........	-327.56
	93	235.783	3.44537E+000	3.44537E+000	-3.69253E-004	...........	-327.56
	94	238.292	3.44537E+000	3.44537E+000	-3.65667E-004	...........	-327.56
	95	240.8	3.44537E+000	3.44537E+000	-3.70487E-004	...........	-327.56
	96	243.308	3.44537E+000	3.44537E+000	-3.69533E-004	...........	-327.56
	97	245.817	3.44537E+000	3.44536E+000	-3.62113E-004	...........	-327.56
	98	248.325	3.44537E+000	3.44537E+000	-3.65427E-004	...........	-327.56
	99	250.833	3.44537E+000	3.44537E+000	-3.64500E-004	...........	-327.56
	100	253.342	3.44537E+000	3.44535E+000	-3.67533E-004	...........	-327.56
	101	255.85	3.44536E+000	3.44536E+000	-3.63087E-004	...........	-327.56
	102	258.358	3.44536E+000	3.44538E+000	-3.62867E-004	...........	-327.56
	103	260.867	3.44536E+000	3.44537E+000	-3.67380E-004	...........	-327.56
	104	263.375	3.44537E+000	3.44535E+000	-3.65253E-004	...........	-327.56
	105	265.883	3.44537E+000	3.44535E+000	-3.62427E-004	...........	-327.56
	106	268.392	3.44537E+000	3.44537E+000	-3.66480E-004	...........	-327.56
	107	270.9	3.44536E+000	3.44535E+000	-3.69953E-004	...........	-327.56
	108	273.408	3.44536E+000	3.44536E+000	-3.67960E-004	...........	-327.56
	109	275.917	3.44536E+000	3.44537E+000	-3.68793E-004	...........	-327.56
	110	278.425	3.44536E+000	3.44536E+000	-3.68380E-004	...........	-327.56
	111	280.933	3.44536E+000	3.44536E+000	-3.64813E-004	...........	-327.56
	112	283.442	3.44536E+000	3.44536E+000	-3.73287E-004	...........	-327.56
	113	285.95	3.44536E+000	3.44535E+000	-3.66067E-004	...........	-327.56
	114	288.458	3.44536E+000	3.44535E+000	-3.72473E-004	...........	-327.56
	115	290.967	3.44536E+000	3.44535E+000	-3.73067E-004	...........	-327.56
	116	293.475	3.44535E+000	3.44535E+000	-3.73947E-004	...........	-327.56
	117	295.983	3.44535E+000	3.44536E+000	-3.72780E-004	...........	-327.56
	118	298.492	3.44535E+000	3.44537E+000	-3.75380E-004	...........	-327.56
	119	301	3.44535E+000	3.44535E+000	-3.72840E-004	...........	-327.56
	120	303.508	3.44536E+000	3.44536E+000	-3.75100E-004	...........	-327.56
	121	306.017	3.44536E+000	3.44536E+000	-3.72093E-004	...........	-327.56
	122	308.525	3.44536E+000	3.44536E+000	-3.72313E-004	...........	-327.56
	123	311.033	3.44536E+000	3.44536E+000	-3.72740E-004	...........	-327.56
	124	313.542	3.44536E+000	3.44537E+000	-3.70813E-004	...........	-327.56
	125	316.05	3.44536E+000	3.44536E+000	-3.70353E-004	...........	-327.56
	126	318.558	3.44536E+000	3.44535E+000	-3.71193E-004	...........	-327.56
	127	321.067	3.44536E+000	3.44536E+000	-3.68380E-004	...........	-327.56
	128	323.575	3.44536E+000	3.44536E+000	-3.65473E-004	...........	-327.56
	129	326.083	3.44536E+000	3.44536E+000	-3.64547E-004	...........	-327.56
	130	328.592	3.44536E+000	3.44535E+000	-3.67747E-004	...........	-327.56
	131	331.1	3.44536E+000	3.44536E+000	-3.65693E-004	...........	-327.56
	132	333.608	3.44536E+000	3.44535E+000	-3.70147E-004	...........	-327.56
	133	336.117	3.44536E+000	3.44535E+000	-3.63273E-004	...........	-327.56
	134	338.625	3.44536E+000	3.44535E+000	-3.67953E-004	...........	-327.56
	135	341.133	3.44535E+000	3.44535E+000	-3.63860E-004	...........	-327.56
	136	343.642	3.44535E+000	3.44535E+000	-3.64673E-004	...........	-327.56
	137	346.15	3.44535E+000	3.44534E+000	-3.65853E-004	...........	-327.56
	138	348.658	3.44535E+000	3.44536E+000	-3.63787E-004	...........	-327.56
	139	351.167	3.44535E+000	3.44536E+000	-3.70793E-004	...........	-327.56
	140	353.675	3.44535E+000	3.44537E+000	-3.67940E-004	...........	-327.56
	141	356.183	3.44535E+000	3.44536E+000	-3.67020E-004	...........	-327.56
	142	358.692	3.44536E+000	3.44536E+000	-3.66833E-004	...........	-327.56
	143	361.2	3.44536E+000	3.44534E+000	-3.62220E-004	...........	-327.56
	144	363.708	3.44536E+000	3.44537E+000	-3.65607E-004	...........	-327.56
	145	366.217	3.44536E+000	3.44535E+000	-3.65920E-004	...........	-327.56
	146	368.725	3.44536E+000	3.44536E+000	-3.64840E-004	...........	-327.56
	147	371.233	3.44536E+000	3.44537E+000	-3.68860E-004	...........	-327.56
	148	373.742	3.44536E+000	3.44535E+000	-3.67980E-004	...........	-327.56
	149	376.25	3.44536E+000	3.44535E+000	-3.67267E-004	...........	-327.56
	150	378.758	3.44536E+000	3.44535E+000	-3.66387E-004	...........	-327.56
	151	381.267	3.44536E+000	3.44537E+000	-3.66720E-004	...........	-327.56
	152	383.775	3.44536E+000	3.44537E+000	-3.67313E-004	...........	-327.56
	153	386.283	3.44536E+000	3.44536E+000	-3.66053E-004	...........	-327.56
	154	388.792	3.44536E+000	3.44535E+000	-3.63547E-004	...........	-327.56
	155	391.3	3.44536E+000	3.44535E+000	-3.65087E-004	...........	-327.56
	156	393.808	3.44536E+000	3.44536E+000	-3.66860E-004	...........	-327.56
	157	396.317	3.44536E+000	3.44536E+000	-3.64013E-004	...........	-327.56
	158	398.825	3.44536E+000	3.44536E+000	-3.65333E-004	...........	-327.56
	159	401.333	3.44536E+000	3.44536E+000	-3.67340E-004	...........	-327.56
	160	403.842	3.44536E+000	3.44535E+000	-3.66000E-004	...........	-327.56
	161	406.35	3.44536E+000	3.44534E+000	-3.61587E-004	...........	-327.56
	162	408.858	3.44536E+000	3.44535E+000	-3.60433E-004	...........	-327.56
	163	411.367	3.44535E+000	3.44535E+000	-3.60700E-004	...........	-327.56
	164	413.875	3.44535E+000	3.44535E+000	-3.65273E-004	...........	-327.56
	165	416.383	3.44535E+000	3.44535E+000	-3.62827E-004	...........	-327.56
	166	418.892	3.44535E+000	3.44535E+000	-3.63713E-004	...........	-327.56
	167	421.4	3.44535E+000	3.44535E+000	-3.65280E-004	...........	-327.56
	168	423.908	3.44535E+000	3.44535E+000	-3.66173E-004	...........	-327.56
	169	426.417	3.44535E+000	3.44536E+000	-3.64333E-004	...........	-327.56
	170	428.925	3.44535E+000	3.44535E+000	-3.68967E-004	...........	-327.56
	171	431.433	3.44535E+000	3.44535E+000	-3.63933E-004	...........	-327.56
	172	433.942	3.44535E+000	3.44535E+000	-3.64540E-004	...........	-327.56
	173	436.45	3.44535E+000	3.44535E+000	-3.68427E-004	...........	-327.56
	174	438.958	3.44535E+000	3.44534E+000	-3.64760E-004	...........	-327.56
	175	441.467	3.44535E+000	3.44536E+000	-3.59833E-004	...........	-327.56
	176	443.975	3.44535E+000	3.44537E+000	-3.68353E-004	...........	-327.56
	177	446.483	3.44535E+000	3.44538E+000	-3.67980E-004	...........	-327.56
	178	448.992	3.44536E+000	3.44538E+000	-3.69540E-004	...........	-327.56
	179	451.5	3.44537E+000	3.44541E+000	-3.66493E-004	...........	-327.56
	180	454.008	3.44538E+000	3.44537E+000	-3.72680E-004	...........	-327.56
	181	456.517	3.44538E+000	3.44535E+000	-3.68507E-004	...........	-327.56
	182	459.025	3.44538E+000	3.44535E+000	-3.65720E-004	...........	-327.56
	183	461.533	3.44537E+000	3.44535E+000	-3.64753E-004	...........	-327.56
	184	464.042	3.44536E+000	3.44536E+000	-3.65167E-004	...........	-327.56
	185	466.55	3.44536E+000	3.44536E+000	-3.65167E-004	...........	-327.56
	186	469.058	3.44536E+000	3.44534E+000	-3.67533E-004	...........	-327.56
	187	471.567	3.44536E+000	3.44534E+000	-3.66920E-004	...........	-327.56
	188	474.075	3.44535E+000	3.44536E+000	-3.68200E-004	...........	-327.56
	189	476.583	3.44535E+000	3.44536E+000	-3.65987E-004	...........	-327.56
	190	479.092	3.44535E+000	3.44536E+000	-3.62773E-004	...........	-327.56
	191	481.6	3.44535E+000	3.44535E+000	-3.61927E-004	...........	-327.56
	192	484.108	3.44536E+000	3.44536E+000	-3.64347E-004	...........	-327.56
	193	486.617	3.44536E+000	3.44534E+000	-3.64827E-004	...........	-327.56
	194	489.125	3.44536E+000	3.44535E+000	-3.62440E-004	...........	-327.56
	195	491.633	3.44535E+000	3.44536E+000	-3.60607E-004	...........	-327.56
	196	494.142	3.44535E+000	3.44536E+000	-3.63053E-004	...........	-327.56
	197	496.65	3.44535E+000	3.44534E+000	-3.62387E-004	...........	-327.56
	198	499.158	3.44536E+000	3.44538E+000	-3.64300E-004	...........	-327.56
	199	501.667	3.44536E+000	3.44537E+000	-3.61687E-004	...........	-327.56
	200	504.175	3.44536E+000	3.44538E+000	-3.65140E-004	...........	-327.56
	201	506.683	3.44537E+000	3.44539E+000	-3.68700E-004	...........	-327.56
	202	509.192	3.44537E+000	3.44536E+000	-3.63327E-004	...........	-327.56
	203	511.7	3.44538E+000	3.44536E+000	-3.63093E-004	...........	-327.56
	204	514.208	3.44538E+000	3.44536E+000	-3.60593E-004	...........	-327.56
	205	516.717	3.44537E+000	3.44537E+000	-3.60607E-004	...........	-327.56
	206	519.225	3.44537E+000	3.44538E+000	-3.62773E-004	...........	-327.56
	207	521.733	3.44536E+000	3.44536E+000	-3.60847E-004	...........	-327.56
	208	524.242	3.44537E+000	3.44536E+000	-3.65727E-004	...........	-327.56
	209	526.75	3.44537E+000	3.44535E+000	-3.58940E-004	...........	-327.56
	210	529.258	3.44536E+000	3.44538E+000	-3.65627E-004	...........	-327.56
	211	531.767	3.44536E+000	3.44539E+000	-3.60107E-004	...........	-327.56
	212	534.275	3.44537E+000	3.44539E+000	-3.58980E-004	...........	-327.56
	213	536.783	3.44537E+000	3.44538E+000	-3.60293E-004	...........	-327.56
	214	539.292	3.44538E+000	3.44538E+000	-3.58253E-004	...........	-327.56
	215	541.8	3.44538E+000	3.44539E+000	-3.54193E-004	...........	-327.56
	216	544.308	3.44538E+000	3.44536E+000	-3.59773E-004	...........	-327.56
	217	546.817	3.44538E+000	3.44538E+000	-3.61107E-004	...........	-327.56
	218	549.325	3.44538E+000	3.44539E+000	-3.61147E-004	...........	-327.56
	219	551.833	3.44538E+000	3.44539E+000	-3.61773E-004	...........	-327.56
	220	554.342	3.44538E+000	3.44537E+000	-3.66793E-004	...........	-327.56
	221	556.85	3.44538E+000	3.44537E+000	-3.60227E-004	...........	-327.56
	222	559.358	3.44538E+000	3.44535E+000	-3.61260E-004	...........	-327.56
	223	561.867	3.44538E+000	3.44536E+000	-3.59133E-004	...........	-327.56
	224	564.375	3.44537E+000	3.44535E+000	-3.54907E-004	...........	-327.56
	225	566.883	3.44536E+000	3.44535E+000	-3.64667E-004	...........	-327.56
	226	569.392	3.44536E+000	3.44535E+000	-3.61920E-004	...........	-327.56
	227	571.9	3.44535E+000	3.44535E+000	-3.61067E-004	...........	-327.56
	228	574.408	3.44535E+000	3.44534E+000	-3.61187E-004	...........	-327.56
	229	576.917	3.44535E+000	3.44535E+000	-3.63480E-004	...........	-327.56
	230	579.425	3.44535E+000	3.44535E+000	-3.57873E-004	...........	-327.56
	231	581.933	3.44535E+000	3.44535E+000	-3.57607E-004	...........	-327.56
	232	584.442	3.44535E+000	3.44535E+000	-3.58560E-004	...........	-327.56
	233	586.95	3.44535E+000	3.44535E+000	-3.64953E-004	...........	-327.56
	234	589.458	3.44535E+000	3.44534E+000	-3.57560E-004	...........	-327.56
	235	591.967	3.44535E+000	3.44535E+000	-3.63240E-004	...........	-327.56
	236	594.475	3.44535E+000	3.44535E+000	-3.63253E-004	...........	-327.56
	237	596.983	3.44535E+000	3.44535E+000	-3.61133E-004	...........	-327.56
	238	599.492	3.44535E+000	3.44535E+000	-3.62807E-004	...........	-327.56
	239	602	3.44535E+000	3.44535E+000	-3.63020E-004	...........	-327.56
	240	604.508	3.44535E+000	3.44535E+000	-3.63907E-004	...........	-327.56
	241	607.017	3.44535E+000	3.44536E+000	-3.63047E-004	...........	-327.56
	242	609.525	3.44535E+000	3.44536E+000	-3.57960E-004	...........	-327.56
	243	612.033	3.44535E+000	3.44535E+000	-3.63647E-004	...........	-327.56
	244	614.542	3.44535E+000	3.44536E+000	-3.60407E-004	...........	-327.56
	245	617.05	3.44535E+000	3.44535E+000	-3.61147E-004	...........	-327.56
	246	619.558	3.44536E+000	3.44536E+000	-3.57340E-004	...........	-327.56
	247	622.067	3.44536E+000	3.44535E+000	-3.65273E-004	...........	-327.56
	248	624.575	3.44536E+000	3.44536E+000	-3.66293E-004	...........	-327.56
	249	627.083	3.44535E+000	3.44535E+000	-3.60167E-004	...........	-327.56
	250	629.592	3.44535E+000	3.44535E+000	-3.61500E-004	...........	-327.56
	251	632.1	3.44535E+000	3.44535E+000	-3.61473E-004	...........	-327.56
	252	634.608	3.44535E+000	3.44539E+000	-3.65807E-004	...........	-327.56
	253	637.117	3.44536E+000	3.44539E+000	-3.63353E-004	...........	-327.56
	254	639.625	3.44536E+000	3.44540E+000	-3.67020E-004	...........	-327.56
	255	642.133	3.44538E+000	3.44538E+000	-3.66447E-004	...........	-327.56
	256	644.642	3.44538E+000	3.44536E+000	-3.64393E-004	...........	-327.56
	257	647.15	3.44538E+000	3.44535E+000	-3.68547E-004	...........	-327.56
	258	649.658	3.44538E+000	3.44536E+000	-3.67340E-004	...........	-327.56
	259	652.167	3.44537E+000	3.44535E+000	-3.70180E-004	...........	-327.56
	260	654.675	3.44536E+000	3.44535E+000	-3.68300E-004	...........	-327.56
	261	657.183	3.44535E+000	3.44535E+000	-3.66500E-004	...........	-327.56
	262	659.692	3.44535E+000	3.44534E+000	-3.65347E-004	...........	-327.56
	263	662.2	3.44535E+000	3.44535E+000	-3.64107E-004	...........	-327.56
	264	664.708	3.44535E+000	3.44536E+000	-3.70867E-004	...........	-327.56
	265	667.217	3.44535E+000	3.44536E+000	-3.66287E-004	...........	-327.56
	266	669.725	3.44535E+000	3.44536E+000	-3.69093E-004	...........	-327.56
	267	672.233	3.44536E+000	3.44536E+000	-3.68153E-004	...........	-327.56
	268	674.742	3.44536E+000	3.44537E+000	-3.70567E-004	...........	-327.56
	269	677.25	3.44536E+000	3.44536E+000	-3.68287E-004	...........	-327.56
	270	679.758	3.44536E+000	3.44536E+000	-3.69413E-004	...........	-327.56
	271	682.267	3.44536E+000	3.44537E+000	-3.66593E-004	...........	-327.56
	272	684.775	3.44536E+000	3.44537E+000	-3.60867E-004	...........	-327.56
	273	687.283	3.44536E+000	3.44535E+000	-3.58727E-004	...........	-327.56
	274	689.792	3.44536E+000	3.44535E+000	-3.66047E-004	...........	-327.56
	275	692.3	3.44536E+000	3.44535E+000	-3.63093E-004	...........	-327.56
	276	694.808	3.44536E+000	3.44535E+000	-3.61107E-004	...........	-327.56
	277	697.317	3.44536E+000	3.44536E+000	-3.65367E-004	...........	-327.56
	278	699.825	3.44535E+000	3.44535E+000	-3.64460E-004	...........	-327.56
	279	702.333	3.44535E+000	3.44536E+000	-3.62987E-004	...........	-327.56
	280	704.842	3.44536E+000	3.44536E+000	-3.66067E-004	...........	-327.56
	281	707.35	3.44536E+000	3.44536E+000	-3.63480E-004	...........	-327.56
	282	709.858	3.44536E+000	3.44536E+000	-3.56653E-004	...........	-327.56
	283	712.367	3.44536E+000	3.44536E+000	-3.57653E-004	...........	-327.56
	284	714.875	3.44536E+000	3.44534E+000	-3.60680E-004	...........	-327.56
	285	717.383	3.44536E+000	3.44535E+000	-3.63793E-004	...........	-327.56
	286	719.892	3.44536E+000	3.44536E+000	-3.65980E-004	...........	-327.56
	287	722.4	3.44535E+000	3.44536E+000	-3.64500E-004	...........	-327.56
	288	724.908	3.44535E+000	3.44534E+000	-3.68187E-004	...........	-327.56
	289	727.417	3.44535E+000	3.44535E+000	-3.62107E-004	...........	-327.56
	290	729.925	3.44535E+000	3.44534E+000	-3.59773E-004	...........	-327.56
	291	732.433	3.44535E+000	3.44534E+000	-3.57807E-004	...........	-327.56
	292	734.942	3.44535E+000	3.44536E+000	-3.62313E-004	...........	-327.56
	293	737.45	3.44535E+000	3.44536E+000	-3.62860E-004	...........	-327.56
	294	739.958	3.44535E+000	3.44536E+000	-3.64427E-004	...........	-327.56
	295	742.467	3.44535E+000	3.44534E+000	-3.66573E-004	...........	-327.56
	296	744.975	3.44535E+000	3.44534E+000	-3.64387E-004	...........	-327.56
	297	747.483	3.44535E+000	3.44536E+000	-3.67827E-004	...........	-327.56
	298	749.992	3.44535E+000	3.44536E+000	-3.68480E-004	...........	-327.56
	299	752.5	3.44535E+000	3.44534E+000	-3.64353E-004	...........	-327.56
	300	755.008	3.44535E+000	3.44534E+000	-3.60127E-004	...........	-327.56
	301	757.517	3.44535E+000	3.44536E+000	-3.65220E-004	...........	-327.56
	302	760.025	3.44535E+000	3.44539E+000	-3.61153E-004	...........	-327.56
	303	762.533	3.44536E+000	3.44538E+000	-3.61120E-004	...........	-327.56
	304	765.042	3.44536E+000	3.44538E+000	-3.63873E-004	...........	-327.56
	305	767.55	3.44537E+000	3.44538E+000	-3.61693E-004	...........	-327.56
	306	770.058	3.44538E+000	3.44539E+000	-3.66593E-004	...........	-327.56
	307	772.567	3.44538E+000	3.44539E+000	-3.62653E-004	...........	-327.56
	308	775.075	3.44538E+000	3.44539E+000	-3.66173E-004	...........	-327.56
	309	777.583	3.44539E+000	3.44538E+000	-3.66393E-004	...........	-327.56
	310	780.092	3.44539E+000	3.44539E+000	-3.62933E-004	...........	-327.56
	311	782.6	3.44539E+000	3.44537E+000	-3.61733E-004	...........	-327.56
	312	785.108	3.44538E+000	3.44538E+000	-3.57447E-004	...........	-327.56
	313	787.617	3.44538E+000	3.44539E+000	-3.66347E-004	...........	-327.56
	314	790.125	3.44538E+000	3.44540E+000	-3.66107E-004	...........	-327.56
	315	792.633	3.44538E+000	3.44540E+000	-3.68020E-004	...........	-327.56
	316	795.142	3.44539E+000	3.44538E+000	-3.64540E-004	...........	-327.56
	317	797.65	3.44539E+000	3.44538E+000	-3.67600E-004	...........	-327.56
	318	800.158	3.44539E+000	3.44538E+000	-3.67553E-004	...........	-327.56
	319	802.667	3.44539E+000	3.44539E+000	-3.65607E-004	...........	-327.56
	320	805.175	3.44539E+000	3.44538E+000	-3.69347E-004	...........	-327.56
	321	807.683	3.44538E+000	3.44537E+000	-3.71620E-004	...........	-327.56
	322	810.192	3.44538E+000	3.44535E+000	-3.70620E-004	...........	-327.56
	323	812.7	3.44538E+000	3.44536E+000	-3.68820E-004	...........	-327.56
	324	815.208	3.44537E+000	3.44535E+000	-3.71193E-004	...........	-327.56
	325	817.717	3.44536E+000	3.44536E+000	-3.70407E-004	...........	-327.56
	326	820.225	3.44536E+000	3.44537E+000	-3.68660E-004	...........	-327.56
	327	822.733	3.44536E+000	3.44536E+000	-3.68767E-004	...........	-327.56
	328	825.242	3.44536E+000	3.44536E+000	-3.72553E-004	...........	-327.56
	329	827.75	3.44536E+000	3.44539E+000	-3.73867E-004	...........	-327.56
	330	830.258	3.44536E+000	3.44539E+000	-3.67980E-004	...........	-327.56
	331	832.767	3.44537E+000	3.44539E+000	-3.63327E-004	...........	-327.56
	332	835.275	3.44538E+000	3.44539E+000	-3.69633E-004	...........	-327.56
	333	837.783	3.44539E+000	3.44538E+000	-3.65820E-004	...........	-327.56
	334	840.292	3.44539E+000	3.44538E+000	-3.65620E-004	...........	-327.56
	335	842.8	3.44539E+000	3.44537E+000	-3.65927E-004	...........	-327.56
	336	845.308	3.44538E+000	3.44540E+000	-3.63227E-004	...........	-327.56
	337	847.817	3.44538E+000	3.44540E+000	-3.66133E-004	...........	-327.56
	338	850.325	3.44539E+000	3.44540E+000	-3.64120E-004	...........	-327.56
	339	852.833	3.44539E+000	3.44538E+000	-3.65833E-004	...........	-327.56
	340	855.342	3.44539E+000	3.44538E+000	-3.69320E-004	...........	-327.56
	341	857.85	3.44539E+000	3.44536E+000	-3.68447E-004	...........	-327.56
	342	860.358	3.44538E+000	3.44535E+000	-3.66947E-004	...........	-327.56
	343	862.867	3.44538E+000	3.44535E+000	-3.69000E-004	...........	-327.56
	344	865.375	3.44537E+000	3.44536E+000	-3.70087E-004	...........	-327.56
	345	867.883	3.44536E+000	3.44536E+000	-3.67940E-004	...........	-327.56
	346	870.392	3.44536E+000	3.44536E+000	-3.72173E-004	...........	-327.56
	347	872.9	3.44536E+000	3.44536E+000	-3.69140E-004	...........	-327.56
	348	875.408	3.44536E+000	3.44535E+000	-3.67320E-004	...........	-327.56
	349	877.917	3.44536E+000	3.44537E+000	-3.71073E-004	...........	-327.56
	350	880.425	3.44536E+000	3.44535E+000	-3.68933E-004	...........	-327.56
	351	882.933	3.44536E+000	3.44536E+000	-3.70193E-004	...........	-327.56
	352	885.442	3.44536E+000	3.44535E+000	-3.68907E-004	...........	-327.56
	353	887.95	3.44536E+000	3.44534E+000	-3.64393E-004	...........	-327.56
	354	890.458	3.44535E+000	3.44536E+000	-3.65333E-004	...........	-327.56
	355	892.967	3.44535E+000	3.44535E+000	-3.66533E-004	...........	-327.56
	356	895.475	3.44535E+000	3.44536E+000	-3.65813E-004	...........	-327.56
	357	897.983	3.44535E+000	3.44536E+000	-3.65160E-004	...........	-327.56
	358	900.492	3.44535E+000	3.44536E+000	-3.67753E-004	...........	-327.56
	359	903	3.44536E+000	3.44537E+000	-3.67920E-004	...........	-327.56
	360	905.508	3.44536E+000	3.44535E+000	-3.66547E-004	...........	-327.56
	361	908.017	3.44536E+000	3.44537E+000	-3.68220E-004	...........	-327.56
	362	910.525	3.44536E+000	3.44536E+000	-3.66640E-004	...........	-327.56
	363	913.033	3.44536E+000	3.44536E+000	-3.65993E-004	...........	-327.56
	364	915.542	3.44536E+000	3.44535E+000	-3.69080E-004	...........	-327.56
	365	918.05	3.44536E+000	3.44535E+000	-3.66460E-004	...........	-327.56
	366	920.558	3.44536E+000	3.44536E+000	-3.67207E-004	...........	-327.56
	367	923.067	3.44536E+000	3.44536E+000	-3.64707E-004	...........	-327.56
	368	925.575	3.44535E+000	3.44536E+000	-3.64993E-004	...........	-327.56
	369	928.083	3.44536E+000	3.44536E+000	-3.68407E-004	...........	-327.56
	370	930.592	3.44536E+000	3.44536E+000	-3.62000E-004	...........	-327.56
	371	933.1	3.44536E+000	3.44535E+000	-3.63940E-004	...........	-327.56
	372	935.608	3.44536E+000	3.44536E+000	-3.65927E-004	...........	-327.56
	373	938.117	3.44536E+000	3.44535E+000	-3.65093E-004	...........	-327.56
	374	940.625	3.44535E+000	3.44536E+000	-3.70773E-004	...........	-327.56
	375	943.133	3.44535E+000	3.44534E+000	-3.60240E-004	...........	-327.56
	376	945.642	3.44535E+000	3.44535E+000	-3.61000E-004	...........	-327.56
	377	948.15	3.44535E+000	3.44535E+000	-3.67120E-004	...........	-327.56
	378	950.66	3.44535E+000	3.44535E+000	-3.66213E-004	...........	-327.56
	379	953.17	3.44535E+000	3.44535E+000	-3.63167E-004	...........	-327.56
	380	955.68	3.44535E+000	3.44535E+000	-3.67273E-004	...........	-327.56
	381	958.18	3.44535E+000	3.44535E+000	-3.68627E-004	...........	-327.56
	382	960.69	3.44535E+000	3.44535E+000	-3.67780E-004	...........	-327.56
	383	963.2	3.44535E+000	3.44535E+000	-3.65687E-004	...........	-327.56
	384	965.71	3.44535E+000	3.44535E+000	-3.71107E-004	...........	-327.56
	385	968.22	3.44535E+000	3.44536E+000	-3.64260E-004	...........	-327.56
	386	970.73	3.44535E+000	3.44539E+000	-3.67007E-004	...........	-327.56
	387	973.23	3.44536E+000	3.44538E+000	-3.63613E-004	...........	-327.56
	388	975.74	3.44536E+000	3.44538E+000	-3.64380E-004	...........	-327.56
	389	978.25	3.44537E+000	3.44539E+000	-3.64447E-004	...........	-327.56
	390	980.76	3.44538E+000	3.44537E+000	-3.63053E-004	...........	-327.56
	391	983.27	3.44538E+000	3.44539E+000	-3.68620E-004	...........	-327.56
	392	985.78	3.44538E+000	3.44538E+000	-3.67060E-004	...........	-327.56
	393	988.28	3.44538E+000	3.44538E+000	-3.69800E-004	...........	-327.56
	394	990.79	3.44538E+000	3.44538E+000	-3.64447E-004	...........	-327.56
	395	993.3	3.44538E+000	3.44539E+000	-3.67320E-004	...........	-327.56
	396	995.81	3.44538E+000	3.44538E+000	-3.68187E-004	...........	-327.56
	397	998.32	3.44538E+000	3.44539E+000	-3.69453E-004	...........	-327.56
	398	1000.83	3.44538E+000	3.44538E+000	-3.69700E-004	...........	-327.56
	399	1003.33	3.44538E+000	3.44538E+000	-3.65207E-004	...........	-327.56
	400	1005.84	3.44538E+000	3.44536E+000	-3.67560E-004	...........	-327.56
	401	1008.35	3.44538E+000	3.44534E+000	-3.64720E-004	...........	-327.56
	402	1010.86	3.44537E+000	3.44534E+000	-3.62360E-004	...........	-327.56
	403	1013.37	3.44536E+000	3.44535E+000	-3.65460E-004	...........	-327.56
	404	1015.88	3.44535E+000	3.44535E+000	-3.67233E-004	...........	-327.56
	405	1018.38	3.44535E+000	3.44535E+000	-3.70020E-004	...........	-327.56
	406	1020.89	3.44535E+000	3.44535E+000	-3.73467E-004	...........	-327.56
	407	1023.4	3.44535E+000	3.44536E+000	-3.69167E-004	...........	-327.56
	408	1025.91	3.44535E+000	3.44535E+000	-3.69880E-004	...........	-327.56
	409	1028.42	3.44535E+000	3.44535E+000	-3.67800E-004	...........	-327.56
	410	1030.93	3.44535E+000	3.44535E+000	-3.68887E-004	...........	-327.56
	411	1033.43	3.44535E+000	3.44536E+000	-3.67773E-004	...........	-327.56
	412	1035.94	3.44535E+000	3.44535E+000	-3.66980E-004	...........	-327.56
	413	1038.45	3.44535E+000	3.44538E+000	-3.66700E-004	...........	-327.56
	414	1040.96	3.44536E+000	3.44534E+000	-3.65313E-004	...........	-327.56
	415	1043.47	3.44536E+000	3.44534E+000	-3.61053E-004	...........	-327.56
	416	1045.98	3.44536E+000	3.44535E+000	-3.63053E-004	...........	-327.56
	417	1048.48	3.44535E+000	3.44535E+000	-3.66593E-004	...........	-327.56
	418	1050.99	3.44535E+000	3.44536E+000	-3.66047E-004	...........	-327.56
	419	1053.5	3.44535E+000	3.44536E+000	-3.69427E-004	...........	-327.56
	420	1056.01	3.44535E+000	3.44535E+000	-3.62660E-004	...........	-327.56
	421	1058.52	3.44535E+000	3.44535E+000	-3.62813E-004	...........	-327.56
	422	1061.03	3.44536E+000	3.44535E+000	-3.62587E-004	...........	-327.56
	423	1063.53	3.44535E+000	3.44536E+000	-3.65300E-004	...........	-327.56
	424	1066.04	3.44535E+000	3.44535E+000	-3.65840E-004	...........	-327.56
	425	1068.55	3.44535E+000	3.44536E+000	-3.65607E-004	...........	-327.56
	426	1071.06	3.44535E+000	3.44535E+000	-3.57920E-004	...........	-327.56
	427	1073.57	3.44535E+000	3.44535E+000	-3.66073E-004	...........	-327.56
	428	1076.08	3.44535E+000	3.44536E+000	-3.67460E-004	...........	-327.56
	429	1078.58	3.44535E+000	3.44537E+000	-3.63493E-004	...........	-327.56
	430	1081.09	3.44536E+000	3.44535E+000	-3.63793E-004	...........	-327.56
	431	1083.6	3.44536E+000	3.44535E+000	-3.63613E-004	...........	-327.56
	432	1086.11	3.44536E+000	3.44537E+000	-3.65460E-004	...........	-327.56
	433	1088.62	3.44536E+000	3.44535E+000	-3.66847E-004	...........	-327.56
	434	1091.13	3.44536E+000	3.44535E+000	-3.61153E-004	...........	-327.56
	435	1093.63	3.44536E+000	3.44536E+000	-3.61300E-004	...........	-327.56
	436	1096.14	3.44536E+000	3.44534E+000	-3.57147E-004	...........	-327.56
	437	1098.65	3.44535E+000	3.44534E+000	-3.62793E-004	...........	-327.56
	438	1101.16	3.44535E+000	3.44535E+000	-3.67733E-004	...........	-327.56
	439	1103.67	3.44535E+000	3.44536E+000	-3.65400E-004	...........	-327.56
	440	1106.18	3.44535E+000	3.44536E+000	-3.62680E-004	...........	-327.56
	441	1108.68	3.44535E+000	3.44535E+000	-3.67267E-004	...........	-327.56
	442	1111.19	3.44535E+000	3.44535E+000	-3.63620E-004	...........	-327.56
	443	1113.7	3.44536E+000	3.44534E+000	-3.64860E-004	...........	-327.56
	444	1116.21	3.44535E+000	3.44535E+000	-3.61060E-004	...........	-327.56
	445	1118.72	3.44535E+000	3.44536E+000	-3.66893E-004	...........	-327.56
	446	1121.23	3.44535E+000	3.44534E+000	-3.67007E-004	...........	-327.56
	447	1123.73	3.44535E+000	3.44536E+000	-3.72147E-004	...........	-327.56
	448	1126.24	3.44535E+000	3.44534E+000	-3.69553E-004	...........	-327.56
	449	1128.75	3.44535E+000	3.44534E+000	-3.65380E-004	...........	-327.56
	450	1131.26	3.44535E+000	3.44535E+000	-3.65600E-004	...........	-327.56
	451	1133.77	3.44535E+000	3.44535E+000	-3.68340E-004	...........	-327.56
	452	1136.28	3.44535E+000	3.44533E+000	-3.64427E-004	...........	-327.56
	453	1138.78	3.44535E+000	3.44535E+000	-3.64080E-004	...........	-327.56
	454	1141.29	3.44535E+000	3.44534E+000	-3.66847E-004	...........	-327.56
	455	1143.8	3.44534E+000	3.44535E+000	-3.69767E-004	...........	-327.56
	456	1146.31	3.44534E+000	3.44535E+000	-3.60673E-004	...........	-327.56
	457	1148.82	3.44535E+000	3.44536E+000	-3.72767E-004	...........	-327.56
	458	1151.33	3.44535E+000	3.44535E+000	-3.64433E-004	...........	-327.56
	459	1153.83	3.44535E+000	3.44536E+000	-3.68593E-004	...........	-327.56
	460	1156.34	3.44536E+000	3.44535E+000	-3.68133E-004	...........	-327.56
	461	1158.85	3.44536E+000	3.44536E+000	-3.67520E-004	...........	-327.56
	462	1161.36	3.44536E+000	3.44535E+000	-3.68880E-004	...........	-327.56
	463	1163.87	3.44535E+000	3.44535E+000	-3.71547E-004	...........	-327.56
	464	1166.38	3.44535E+000	3.44535E+000	-3.71220E-004	...........	-327.56
	465	1168.88	3.44535E+000	3.44536E+000	-3.68467E-004	...........	-327.56
	466	1171.39	3.44535E+000	3.44534E+000	-3.70993E-004	...........	-327.56
	467	1173.9	3.44535E+000	3.44536E+000	-3.67700E-004	...........	-327.56
	468	1176.41	3.44535E+000	3.44534E+000	-3.69987E-004	...........	-327.56
	469	1178.92	3.44535E+000	3.44537E+000	-3.63953E-004	...........	-327.56
	470	1181.43	3.44535E+000	3.44538E+000	-3.67087E-004	...........	-327.56
	471	1183.93	3.44536E+000	3.44536E+000	-3.67860E-004	...........	-327.56
	472	1186.44	3.44536E+000	3.44535E+000	-3.72647E-004	...........	-327.56
	473	1188.95	3.44536E+000	3.44534E+000	-3.70547E-004	...........	-327.56
	474	1191.46	3.44536E+000	3.44536E+000	-3.70973E-004	...........	-327.56
	475	1193.97	3.44535E+000	3.44535E+000	-3.66600E-004	...........	-327.56
	476	1196.48	3.44535E+000	3.44535E+000	-3.71687E-004	...........	-327.56
	477	1198.98	3.44535E+000	3.44535E+000	-3.73973E-004	...........	-327.56
	478	1201.49	3.44535E+000	3.44535E+000	-3.71280E-004	...........	-327.56
	479	1204	3.44535E+000	3.44535E+000	-3.73500E-004	...........	-327.56
	480	1206.51	3.44535E+000	3.44535E+000	-3.72767E-004	...........	-327.56
	481	1209.02	3.44535E+000	3.44535E+000	-3.70620E-004	...........	-327.56
	482	1211.53	3.44535E+000	3.44535E+000	-3.67967E-004	...........	-327.56
	483	1214.03	3.44535E+000	3.44534E+000	-3.76360E-004	...........	-327.56
	484	1216.54	3.44535E+000	3.44535E+000	-3.67733E-004	...........	-327.56
	485	1219.05	3.44535E+000	3.44536E+000	-3.65720E-004	...........	-327.56
	486	1221.56	3.44535E+000	3.44536E+000	-3.71640E-004	...........	-327.56
	487	1224.07	3.44535E+000	3.44537E+000	-3.73407E-004	...........	-327.56
	488	1226.58	3.44536E+000	3.44535E+000	-3.67100E-004	...........	-327.56
	489	1229.08	3.44536E+000	3.44534E+000	-3.75820E-004	...........	-327.56
	490	1231.59	3.44536E+000	3.44535E+000	-3.71527E-004	...........	-327.56
	491	1234.1	3.44535E+000	3.44535E+000	-3.73813E-004	...........	-327.56
	492	1236.61	3.44535E+000	3.44535E+000	-3.71453E-004	...........	-327.56
	493	1239.12	3.44535E+000	3.44536E+000	-3.71380E-004	...........	-327.56
	494	1241.63	3.44535E+000	3.44536E+000	-3.66753E-004	...........	-327.56
	495	1244.13	3.44535E+000	3.44536E+000	-3.67673E-004	...........	-327.56
	496	1246.64	3.44535E+000	3.44535E+000	-3.69133E-004	...........	-327.56
	497	1249.15	3.44536E+000	3.44535E+000	-3.67980E-004	...........	-327.56
	498	1251.66	3.44536E+000	3.44535E+000	-3.71147E-004	...........	-327.56
	499	1254.17	3.44535E+000	3.44536E+000	-3.67193E-004	...........	-327.56
	500	1256.68	3.44535E+000	3.44536E+000	-3.67067E-004	...........	-327.56
	501	1259.18	3.44535E+000	3.44535E+000	-3.71247E-004	...........	-327.56
	502	1261.69	3.44536E+000	3.44536E+000	-3.64833E-004	...........	-327.56
	503	1264.2	3.44536E+000	3.44535E+000	-3.68693E-004	...........	-327.56
	504	1266.71	3.44536E+000	3.44536E+000	-3.66627E-004	...........	-327.56
	505	1269.22	3.44536E+000	3.44537E+000	-3.67680E-004	...........	-327.56
	506	1271.73	3.44536E+000	3.44536E+000	-3.71693E-004	...........	-327.56
	507	1274.23	3.44536E+000	3.44536E+000	-3.67893E-004	...........	-327.56
	508	1276.74	3.44536E+000	3.44536E+000	-3.64840E-004	...........	-327.56
	509	1279.25	3.44536E+000	3.44536E+000	-3.71533E-004	...........	-327.56
	510	1281.76	3.44536E+000	3.44535E+000	-3.66233E-004	...........	-327.56
	511	1284.27	3.44536E+000	3.44535E+000	-3.71053E-004	...........	-327.56
	512	1286.78	3.44535E+000	3.44535E+000	-3.66860E-004	...........	-327.56
	513	1289.28	3.44535E+000	3.44535E+000	-3.68160E-004	...........	-327.56
	514	1291.79	3.44535E+000	3.44534E+000	-3.68693E-004	...........	-327.56
	515	1294.3	3.44535E+000	3.44535E+000	-3.63953E-004	...........	-327.56
	516	1296.81	3.44535E+000	3.44535E+000	-3.64547E-004	...........	-327.56
	517	1299.32	3.44535E+000	3.44534E+000	-3.58513E-004	...........	-327.56
	518	1301.83	3.44535E+000	3.44536E+000	-3.65747E-004	...........	-327.56
	519	1304.33	3.44535E+000	3.44535E+000	-3.64093E-004	...........	-327.56
	520	1306.84	3.44535E+000	3.44535E+000	-3.65747E-004	...........	-327.56
	521	1309.35	3.44535E+000	3.44535E+000	-3.61473E-004	...........	-327.56
	522	1311.86	3.44535E+000	3.44536E+000	-3.63313E-004	...........	-327.56
	523	1314.37	3.44535E+000	3.44535E+000	-3.64373E-004	...........	-327.56
	524	1316.88	3.44536E+000	3.44534E+000	-3.64413E-004	...........	-327.56
	525	1319.38	3.44536E+000	3.44535E+000	-3.67787E-004	...........	-327.56
	526	1321.89	3.44535E+000	3.44536E+000	-3.67320E-004	...........	-327.56
	527	1324.4	3.44535E+000	3.44535E+000	-3.65667E-004	...........	-327.56
	528	1326.91	3.44535E+000	3.44535E+000	-3.65100E-004	...........	-327.56
	529	1329.42	3.44535E+000	3.44536E+000	-3.69867E-004	...........	-327.56
	530	1331.93	3.44535E+000	3.44536E+000	-3.66787E-004	...........	-327.56
	531	1334.43	3.44535E+000	3.44536E+000	-3.68107E-004	...........	-327.56
	532	1336.94	3.44536E+000	3.44537E+000	-3.70187E-004	...........	-327.56
	533	1339.45	3.44536E+000	3.44536E+000	-3.65893E-004	...........	-327.56
	534	1341.96	3.44536E+000	3.44536E+000	-3.66613E-004	...........	-327.56
	535	1344.47	3.44536E+000	3.44535E+000	-3.68887E-004	...........	-327.56
	536	1346.98	3.44536E+000	3.44534E+000	-3.64020E-004	...........	-327.56
	537	1349.48	3.44536E+000	3.44536E+000	-3.66493E-004	...........	-327.56
	538	1351.99	3.44535E+000	3.44536E+000	-3.66953E-004	...........	-327.56
	539	1354.5	3.44535E+000	3.44536E+000	-3.67727E-004	...........	-327.56
	540	1357.01	3.44536E+000	3.44536E+000	-3.61867E-004	...........	-327.56
	541	1359.52	3.44536E+000	3.44536E+000	-3.63147E-004	...........	-327.56
	542	1362.03	3.44536E+000	3.44536E+000	-3.63960E-004	...........	-327.56
	543	1364.53	3.44536E+000	3.44536E+000	-3.63853E-004	...........	-327.56
	544	1367.04	3.44536E+000	3.44537E+000	-3.64047E-004	...........	-327.56
	545	1369.55	3.44536E+000	3.44535E+000	-3.64053E-004	...........	-327.56
	546	1372.06	3.44536E+000	3.44535E+000	-3.64520E-004	...........	-327.56
	547	1374.57	3.44536E+000	3.44536E+000	-3.63120E-004	...........	-327.56
	548	1377.08	3.44536E+000	3.44536E+000	-3.60727E-004	...........	-327.56
	549	1379.58	3.44536E+000	3.44536E+000	-3.67660E-004	...........	-327.56
	550	1382.09	3.44536E+000	3.44536E+000	-3.70273E-004	...........	-327.56
	551	1384.6	3.44536E+000	3.44536E+000	-3.74680E-004	...........	-327.56
	552	1387.11	3.44536E+000	3.44535E+000	-3.66120E-004	...........	-327.56
	553	1389.62	3.44536E+000	3.44535E+000	-3.66280E-004	...........	-327.56
	554	1392.13	3.44536E+000	3.44535E+000	-3.69613E-004	...........	-327.56
	555	1394.63	3.44535E+000	3.44536E+000	-3.72633E-004	...........	-327.56
	556	1397.14	3.44535E+000	3.44536E+000	-3.66747E-004	...........	-327.56
	557	1399.65	3.44535E+000	3.44536E+000	-3.70960E-004	...........	-327.56
	558	1402.16	3.44536E+000	3.44536E+000	-3.68387E-004	...........	-327.56
	559	1404.67	3.44536E+000	3.44535E+000	-3.69000E-004	...........	-327.56
	560	1407.18	3.44536E+000	3.44535E+000	-3.71507E-004	...........	-327.56
	561	1409.68	3.44536E+000	3.44535E+000	-3.64987E-004	...........	-327.56
	562	1412.19	3.44535E+000	3.44534E+000	-3.66033E-004	...........	-327.56
	563	1414.7	3.44535E+000	3.44535E+000	-3.70080E-004	...........	-327.56
	564	1417.21	3.44535E+000	3.44536E+000	-3.69193E-004	...........	-327.56
	565	1419.72	3.44535E+000	3.44535E+000	-3.63653E-004	...........	-327.56
	566	1422.23	3.44535E+000	3.44535E+000	-3.65747E-004	...........	-327.56
	567	1424.73	3.44535E+000	3.44534E+000	-3.66693E-004	...........	-327.56
	568	1427.24	3.44535E+000	3.44535E+000	-3.62980E-004	...........	-327.56
	569	1429.75	3.44535E+000	3.44535E+000	-3.68700E-004	...........	-327.56
	570	1432.26	3.44535E+000	3.44535E+000	-3.64447E-004	...........	-327.56
	571	1434.77	3.44535E+000	3.44536E+000	-3.63693E-004	...........	-327.56
	572	1437.28	3.44535E+000	3.44535E+000	-3.70433E-004	...........	-327.56
	573	1439.78	3.44535E+000	3.44534E+000	-3.65460E-004	...........	-327.56
	574	1442.29	3.44535E+000	3.44535E+000	-3.65453E-004	...........	-327.56
	575	1444.8	3.44535E+000	3.44535E+000	-3.64100E-004	...........	-327.56
	576	1447.31	3.44535E+000	3.44535E+000	-3.65580E-004	...........	-327.56
	577	1449.82	3.44535E+000	3.44536E+000	-3.71100E-004	...........	-327.56
	578	1452.33	3.44535E+000	3.44535E+000	-3.72760E-004	...........	-327.56
	579	1454.83	3.44535E+000	3.44536E+000	-3.66400E-004	...........	-327.56
	580	1457.34	3.44535E+000	3.44537E+000	-3.69967E-004	...........	-327.56
	581	1459.85	3.44536E+000	3.44536E+000	-3.63753E-004	...........	-327.56
	582	1462.36	3.44536E+000	3.44535E+000	-3.65633E-004	...........	-327.56
	583	1464.87	3.44536E+000	3.44536E+000	-3.68427E-004	...........	-327.56
	584	1467.38	3.44536E+000	3.44536E+000	-3.64107E-004	...........	-327.56
	585	1469.88	3.44536E+000	3.44535E+000	-3.65267E-004	...........	-327.56
	586	1472.39	3.44536E+000	3.44535E+000	-3.64967E-004	...........	-327.56
	587	1474.9	3.44536E+000	3.44535E+000	-3.67460E-004	...........	-327.56
	588	1477.41	3.44535E+000	3.44536E+000	-3.66147E-004	...........	-327.56
	589	1479.92	3.44535E+000	3.44539E+000	-3.67940E-004	...........	-327.56
	590	1482.43	3.44536E+000	3.44536E+000	-3.70773E-004	...........	-327.56
	591	1484.93	3.44536E+000	3.44536E+000	-3.71053E-004	...........	-327.56
	592	1487.44	3.44537E+000	3.44535E+000	-3.69727E-004	...........	-327.56
	593	1489.95	3.44536E+000	3.44537E+000	-3.68440E-004	...........	-327.56
	594	1492.46	3.44536E+000	3.44535E+000	-3.65607E-004	...........	-327.56
	595	1494.97	3.44536E+000	3.44537E+000	-3.69307E-004	...........	-327.56
	596	1497.48	3.44536E+000	3.44536E+000	-3.66053E-004	...........	-327.56
	597	1499.98	3.44536E+000	3.44536E+000	-3.68653E-004	...........	-327.56
	598	1502.49	3.44536E+000	3.44535E+000	-3.65953E-004	...........	-327.56
	599	1505	3.44536E+000	3.44536E+000	-3.69813E-004	...........	-327.56
	600	1507.51	3.44536E+000	3.44536E+000	-3.66120E-004	...........	-327.56
	601	1510.02	3.44536E+000	3.44536E+000	-3.73687E-004	...........	-327.56
	602	1512.53	3.44536E+000	3.44537E+000	-3.69213E-004	...........	-327.56
	603	1515.03	3.44536E+000	3.44536E+000	-3.69020E-004	...........	-327.56
	604	1517.54	3.44536E+000	3.44536E+000	-3.71840E-004	...........	-327.56
	605	1520.05	3.44536E+000	3.44535E+000	-3.65840E-004	...........	-327.56
	606	1522.56	3.44536E+000	3.44534E+000	-3.67740E-004	...........	-327.56
	607	1525.07	3.44536E+000	3.44537E+000	-3.69787E-004	...........	-327.56
	608	1527.58	3.44535E+000	3.44534E+000	-3.71013E-004	...........	-327.56
	609	1530.08	3.44535E+000	3.44535E+000	-3.70860E-004	...........	-327.56
	610	1532.59	3.44535E+000	3.44535E+000	-3.67887E-004	...........	-327.56
	611	1535.1	3.44535E+000	3.44534E+000	-3.66527E-004	...........	-327.56
	612	1537.61	3.44535E+000	3.44535E+000	-3.70453E-004	...........	-327.56
	613	1540.12	3.44535E+000	3.44535E+000	-3.67167E-004	...........	-327.56
	614	1542.63	3.44535E+000	3.44535E+000	-3.63500E-004	...........	-327.56
	615	1545.13	3.44535E+000	3.44535E+000	-3.70007E-004	...........	-327.56
	616	1547.64	3.44535E+000	3.44536E+000	-3.68860E-004	...........	-327.56
	617	1550.15	3.44535E+000	3.44536E+000	-3.68473E-004	...........	-327.56
	618	1552.66	3.44535E+000	3.44535E+000	-3.70820E-004	...........	-327.56
	619	1555.17	3.44536E+000	3.44536E+000	-3.72507E-004	...........	-327.56
	620	1557.68	3.44536E+000	3.44535E+000	-3.73920E-004	...........	-327.56
	621	1560.18	3.44536E+000	3.44536E+000	-3.69453E-004	...........	-327.56
	622	1562.69	3.44535E+000	3.44535E+000	-3.68407E-004	...........	-327.56
	623	1565.2	3.44535E+000	3.44535E+000	-3.70380E-004	...........	-327.56
	624	1567.71	3.44535E+000	3.44535E+000	-3.70633E-004	...........	-327.56
	625	1570.22	3.44535E+000	3.44535E+000	-3.70940E-004	...........	-327.56
	626	1572.73	3.44535E+000	3.44535E+000	-3.70787E-004	...........	-327.56
	627	1575.23	3.44535E+000	3.44537E+000	-3.67940E-004	...........	-327.56
	628	1577.74	3.44535E+000	3.44535E+000	-3.71493E-004	...........	-327.56
	629	1580.25	3.44536E+000	3.44536E+000	-3.67640E-004	...........	-327.56
	630	1582.76	3.44536E+000	3.44536E+000	-3.71933E-004	...........	-327.56
	631	1585.27	3.44536E+000	3.44539E+000	-3.73413E-004	...........	-327.56
	632	1587.78	3.44536E+000	3.44538E+000	-3.72873E-004	...........	-327.56
	633	1590.28	3.44537E+000	3.44539E+000	-3.67507E-004	...........	-327.56
	634	1592.79	3.44538E+000	3.44538E+000	-3.66313E-004	...........	-327.56
	635	1595.3	3.44538E+000	3.44534E+000	-3.69480E-004	...........	-327.56
	636	1597.81	3.44538E+000	3.44538E+000	-3.69987E-004	...........	-327.56
	637	1600.32	3.44538E+000	3.44538E+000	-3.65667E-004	...........	-327.56
	638	1602.83	3.44537E+000	3.44538E+000	-3.68800E-004	...........	-327.56
	639	1605.33	3.44537E+000	3.44534E+000	-3.68273E-004	...........	-327.56
	640	1607.84	3.44537E+000	3.44535E+000	-3.71107E-004	...........	-327.56
	641	1610.35	3.44537E+000	3.44535E+000	-3.72393E-004	...........	-327.56
	642	1612.86	3.44536E+000	3.44534E+000	-3.70560E-004	...........	-327.56
	643	1615.37	3.44535E+000	3.44535E+000	-3.71073E-004	...........	-327.56
	644	1617.88	3.44535E+000	3.44536E+000	-3.68733E-004	...........	-327.56
	645	1620.38	3.44535E+000	3.44535E+000	-3.68400E-004	...........	-327.56
	646	1622.89	3.44535E+000	3.44535E+000	-3.68147E-004	...........	-327.56
	647	1625.4	3.44535E+000	3.44535E+000	-3.65233E-004	...........	-327.56
	648	1627.91	3.44535E+000	3.44535E+000	-3.67513E-004	...........	-327.56
	649	1630.42	3.44535E+000	3.44535E+000	-3.67200E-004	...........	-327.56
	650	1632.93	3.44535E+000	3.44537E+000	-3.69813E-004	...........	-327.56
	651	1635.43	3.44535E+000	3.44535E+000	-3.68653E-004	...........	-327.56
	652	1637.94	3.44535E+000	3.44535E+000	-3.69033E-004	...........	-327.56
	653	1640.45	3.44536E+000	3.44534E+000	-3.70660E-004	...........	-327.56
	654	1642.96	3.44535E+000	3.44536E+000	-3.67260E-004	...........	-327.56
	655	1645.47	3.44535E+000	3.44535E+000	-3.73373E-004	...........	-327.56
	656	1647.98	3.44535E+000	3.44535E+000	-3.75347E-004	...........	-327.56
	657	1650.48	3.44535E+000	3.44535E+000	-3.71867E-004	...........	-327.56
	658	1652.99	3.44535E+000	3.44535E+000	-3.77173E-004	...........	-327.56
	659	1655.5	3.44535E+000	3.44536E+000	-3.78033E-004	...........	-327.56
	660	1658.01	3.44535E+000	3.44535E+000	-3.71113E-004	...........	-327.56
	661	1660.52	3.44535E+000	3.44536E+000	-3.76120E-004	...........	-327.56
	662	1663.03	3.44535E+000	3.44535E+000	-3.77280E-004	...........	-327.56
	663	1665.53	3.44536E+000	3.44536E+000	-3.71887E-004	...........	-327.56
	664	1668.04	3.44536E+000	3.44536E+000	-3.72653E-004	...........	-327.56
	665	1670.55	3.44536E+000	3.44539E+000	-3.71927E-004	...........	-327.56
	666	1673.06	3.44536E+000	3.44538E+000	-3.68300E-004	...........	-327.56
	667	1675.57	3.44537E+000	3.44538E+000	-3.68067E-004	...........	-327.56
	668	1678.08	3.44538E+000	3.44539E+000	-3.72267E-004	...........	-327.56
	669	1680.58	3.44538E+000	3.44538E+000	-3.73007E-004	...........	-327.56
	670	1683.09	3.44538E+000	3.44538E+000	-3.72440E-004	...........	-327.56
	671	1685.6	3.44539E+000	3.44539E+000	-3.70527E-004	...........	-327.56
	672	1688.11	3.44539E+000	3.44540E+000	-3.71800E-004	...........	-327.56
	673	1690.62	3.44539E+000	3.44539E+000	-3.70800E-004	...........	-327.56
	674	1693.13	3.44539E+000	3.44538E+000	-3.65413E-004	...........	-327.56
	675	1695.63	3.44539E+000	3.44538E+000	-3.73400E-004	...........	-327.56
	676	1698.14	3.44539E+000	3.44539E+000	-3.71627E-004	...........	-327.56
	677	1700.65	3.44539E+000	3.44538E+000	-3.74693E-004	...........	-327.56
	678	1703.16	3.44538E+000	3.44538E+000	-3.77427E-004	...........	-327.56
	679	1705.67	3.44538E+000	3.44538E+000	-3.73353E-004	...........	-327.56
	680	1708.18	3.44538E+000	3.44539E+000	-3.76527E-004	...........	-327.56
	681	1710.68	3.44538E+000	3.44540E+000	-3.75187E-004	...........	-327.56
	682	1713.19	3.44539E+000	3.44537E+000	-3.70707E-004	...........	-327.56
	683	1715.7	3.44539E+000	3.44536E+000	-3.76460E-004	...........	-327.56
	684	1718.21	3.44538E+000	3.44536E+000	-3.72433E-004	...........	-327.56
	685	1720.72	3.44538E+000	3.44536E+000	-3.73660E-004	...........	-327.56
	686	1723.23	3.44537E+000	3.44536E+000	-3.73720E-004	...........	-327.56
	687	1725.73	3.44536E+000	3.44535E+000	-3.71887E-004	...........	-327.56
	688	1728.24	3.44536E+000	3.44535E+000	-3.75947E-004	...........	-327.56
	689	1730.75	3.44536E+000	3.44536E+000	-3.69907E-004	...........	-327.56
	690	1733.26	3.44536E+000	3.44536E+000	-3.74387E-004	...........	-327.56
	691	1735.77	3.44536E+000	3.44536E+000	-3.72553E-004	...........	-327.56
	692	1738.28	3.44536E+000	3.44535E+000	-3.72407E-004	...........	-327.56
	693	1740.78	3.44536E+000	3.44536E+000	-3.70227E-004	...........	-327.56
	694	1743.29	3.44536E+000	3.44535E+000	-3.73160E-004	...........	-327.56
	695	1745.8	3.44536E+000	3.44536E+000	-3.67720E-004	...........	-327.56
	696	1748.31	3.44536E+000	3.44536E+000	-3.68153E-004	...........	-327.56
	697	1750.82	3.44536E+000	3.44536E+000	-3.70553E-004	...........	-327.56
	698	1753.33	3.44536E+000	3.44535E+000	-3.64687E-004	...........	-327.56
	699	1755.83	3.44536E+000	3.44535E+000	-3.67367E-004	...........	-327.56
	700	1758.34	3.44535E+000	3.44534E+000	-3.71227E-004	...........	-327.56
	701	1760.85	3.44535E+000	3.44537E+000	-3.73553E-004	...........	-327.56
	702	1763.36	3.44535E+000	3.44535E+000	-3.70913E-004	...........	-327.56
	703	1765.87	3.44535E+000	3.44535E+000	-3.71347E-004	...........	-327.56
	704	1768.38	3.44536E+000	3.44536E+000	-3.69633E-004	...........	-327.56
	705	1770.88	3.44536E+000	3.44537E+000	-3.68333E-004	...........	-327.56
	706	1773.39	3.44536E+000	3.44534E+000	-3.68267E-004	...........	-327.56
	707	1775.9	3.44536E+000	3.44536E+000	-3.65313E-004	...........	-327.56
	708	1778.41	3.44536E+000	3.44537E+000	-3.72693E-004	...........	-327.56
	709	1780.92	3.44536E+000	3.44535E+000	-3.70627E-004	...........	-327.56
	710	1783.43	3.44536E+000	3.44535E+000	-3.74040E-004	...........	-327.56
	711	1785.93	3.44536E+000	3.44536E+000	-3.71593E-004	...........	-327.56
	712	1788.44	3.44536E+000	3.44535E+000	-3.73113E-004	...........	-327.56
	713	1790.95	3.44536E+000	3.44536E+000	-3.71133E-004	...........	-327.56
	714	1793.46	3.44535E+000	3.44535E+000	-3.69267E-004	...........	-327.56
	715	1795.97	3.44535E+000	3.44537E+000	-3.70633E-004	...........	-327.56
	716	1798.48	3.44536E+000	3.44536E+000	-3.72267E-004	...........	-327.56
	717	1800.98	3.44536E+000	3.44536E+000	-3.75340E-004	...........	-327.56
EOC	QUANT	3.445357	Open Circuit (V)
PSTATMODEL	IQUANT	5	Pstat Model
PSTATSECTION	LABEL	REF3000-51199	Pstat Section
PSTATSERIALNO	LABEL	51199	Pstat Serial Number
CTRLMODE	IQUANT	1	Control Mode
ELECTROMETER	IQUANT	0	RE=0 or CS=1
IESTAB	IQUANT	0	I/E Stability
CASPEED	IQUANT	3	Control Amp Speed
CONVENTION	IQUANT	1	Current Convention
ICHRANGE	IQUANT	2	Ich Range
ICHRANGEMODE	TOGGLE	F	Ich Auto Range
ICHOFFSETENABLE	TOGGLE	T	Ich Offset Enable
ICHOFFSET	QUANT	0	Ich Offset (V)
ICHFILTER	IQUANT	3	Ich Filter
VCHRANGE	IQUANT	2	Vch Range
VCHRANGEMODE	TOGGLE	F	Vch Auto Range
VCHOFFSETENABLE	TOGGLE	T	Vch Offset Enable
VCHOFFSET	QUANT	0	Vch Offset (V)
VCHFILTER	IQUANT	3	Vch Filter
ACHRANGE	IQUANT	2	Ach Range
ACHOFFSETENABLE	TOGGLE	F	Ach Offset Enable
ACHOFFSET	QUANT	0	Ach Offset (V)
ACHFILTER	IQUANT	1	Ach Filter
IERANGELOWERLIMIT	IQUANT	2	I/E Range Lower Limit
IERANGEMODE	TOGGLE	F	I/E AutoRange
IERANGE	IQUANT	12	I/E Range
POSFEEDENABLE	TOGGLE	F	Positive Feedback IR Comp
POSFEEDRESISTANCE	QUANT	0	Positive Feedback Resistance (ohm)
ACHSELECT	IQUANT	4	Ach Select
SENSECABLEID	IQUANT	14	Sense Cable ID
PWRCABLEID	IQUANT	7	Power Cable ID
DCCALDATE	LABEL	1/28/2026	DC Calibration Date
ACCALDATE	LABEL	1/28/2026	AC Calibration Date
THERMOSELECT	IQUANT	1	Thermo Select
FRAMEWORKVERSION	LABEL	7.11.0	Framework Version
INSTRUMENTVERSION	LABEL	5.20	Instrument Version
COMMVERSION	LABEL	5.10	Communications Version
CPUPLDVERSION	LABEL	6.00	CPU PLD Version
CTRLPLDVERSION	LABEL	3.21	CTRL PLD Version
PSTATPLDVERSION	LABEL	0.00	PSTAT PLD Version
COMPLIANCEVOLTAGE	IQUANT	0	Compliance Voltage
ZCURVE	TABLE
	Pt	Time	Freq	Zreal	Zimag	Zsig	Zmod	Zphz	ZrealDrCor	ZimagDrCor	ZmodDrCor	ZphzDrCor	Idc	Vdc	IERange	Imod	Vmod	Temp	Ithd	Vthd	IHr1	IHi1	VHr1	VHi1	IHr2	IHi2	VHr2	VHi2	IHr3	IHi3	VHr3	VHi3	IHr4	IHi4	VHr4	VHi4	IHr5	IHi5	VHr5	VHi5	IHr6	IHi6	VHr6	VHi6	IHr7	IHi7	VHr7	VHi7	IHr8	IHi8	VHr8	VHi8	IHr9	IHi9	VHr9	VHi9	IHr10	IHi10	VHr10	VHi10
	#	s	Hz	ohm	ohm	V	ohm	deg	ohm	ohm	ohm	deg	A	V	#	A	V	degC	#	#	A	A	V	V	A	A	V	V	A	A	V	V	A	A	V	V	A	A	V	V	A	A	V	V	A	A	V	V	A	A	V	V	A	A	V	V	A	A	V	V
	0	2	10078.13	0.033435	0.0252307	1	0.0418866	37.03898	0.033435	0.0252307	0.0418866	37.03898	-0.0760666	3.441617	12	0.2094939	0.0087736	-327.5556	0.130793	0.2375	1.846896	-18.87106	0.5347753	-0.5870296	1.649541	0.5045921	0.0338256	0.0997674	-0.4692935	1.546911	-0.1308463	0.0234762	0.6668555	0.1880878	0.00916	0.0716546	-0.0978262	0.2223095	-0.030638	-0.0014777	0.1167528	0.045686	-0.0009756	0.0186318	-0.0235233	0.0297312	-0.0060016	-0.0023601	-0.0422112	-0.0159668	0.0010731	-0.008526	-0.0224476	0.0329802	-0.008049	-0.0026321	-0.0333937	-0.0253605	0.0035092	-0.0096333
	1	4	8015.625	0.0331945	0.0200897	1	0.0388004	31.18284	0.0331945	0.0200897	0.0388004	31.18284	-0.0733385	3.441614	12	0.3246201	0.0125941	-327.5556	0.1036211	0.1929475	17.41832	23.66138	0.1074941	1.13481	0.6113925	-1.172843	0.0682313	-0.0165515	-2.374069	0.6798347	-0.125407	-0.1160915	-0.7061989	-0.430692	0.0061685	-0.0713992	0.0882169	0.7264233	-0.0656042	0.0389369	-0.2586103	0.2957534	-0.0447495	-0.0165228	0.1778798	0.0173865	0.0055964	0.0243919	0.0707707	0.097389	-0.011143	0.0152302	0.0128944	-0.0251652	0.0045531	0.0009504	-0.0062013	0.0069929	-0.0015926	-0.0012274
	2	6	6328.125	0.0329665	0.0157022	1	0.0365151	25.46874	0.0329665	0.0157022	0.0365151	25.46874	-0.0714844	3.4416	12	0.3099834	0.0113184	-327.5556	0.1053405	0.174971	18.50202	-21.09128	0.9397483	-0.4078111	-0.1518924	1.304763	-0.0464592	0.0397103	-1.833417	-1.527192	0.0079623	-0.1395731	-0.7796691	0.2321625	-0.0432264	-0.0397067	0.2621734	-0.6389302	0.0590426	-0.0051482	-0.2072492	-0.3116479	0.019888	-0.0312872	0.1571973	0.0260734	0.0038748	0.0176439	0.064384	-0.0792612	0.0122838	0.0041395	-0.0043815	0.0229532	-0.0030947	0.0005555	-0.0158995	-0.0155007	0.001894	-0.0030026
	3	8	5015.625	0.0328419	0.0122247	1	0.0350433	20.41677	0.0328419	0.0122247	0.0350433	20.41677	-0.0695125	3.441599	12	0.3284594	0.0115099	-327.5556	0.1009277	0.1531281	8.144787	28.59128	-0.0793547	1.038727	1.179105	-0.2720145	0.0464629	0.0204496	-1.530426	-1.928266	0.0204558	-0.1233233	0.3663573	-0.7195808	0.0487014	-0.00758	-0.7685903	-0.106561	-0.0222788	-0.0511756	-0.1143555	-0.3851051	0.0240042	-0.0230208	-0.1745762	0.1086507	-0.0160108	-0.0104041	-0.1194512	-0.0681874	0.0016685	-0.0143473	-0.0143471	0.0304916	-0.0039623	-0.0001602	0.0012557	0.0148614	-0.0016603	0.0008307
	4	10	3984.375	0.0327949	0.0094108	1	0.0341184	16.01131	0.0327949	0.0094108	0.0341184	16.01131	-0.0669296	3.44164	12	0.3302957	0.0112689	-327.5556	0.0986649	0.1362	-29.29502	-5.959068	-0.9055862	-0.4692539	-0.7658208	-0.8222692	-0.0091741	-0.0426366	-1.650777	-1.791966	-0.001467	-0.1095814	0.518611	0.5917667	-0.0053333	0.0412106	0.4469486	0.6634612	-0.016461	0.0458953	-0.216762	-0.3480458	0.0123155	-0.025517	-0.0814817	-0.2062944	0.0109692	-0.0131576	0.0631316	0.1366259	-0.0080364	0.0100312	0.0024751	0.0398139	-0.0032237	0.0018718	-0.0229018	-0.006845	-0.0003097	-0.0024326
	5	12	3170.956	0.0328203	0.0071263	1	0.0335851	12.2505	0.0328203	0.0071263	0.0335851	12.2505	-0.0662483	3.441607	12	0.3300287	0.0110839	-327.5556	0.0961247	0.1220966	-25.07949	16.22601	-0.9381558	0.3553407	-0.85587	0.6247739	-0.0380104	0.0073746	-0.3406293	2.340272	-0.067235	0.0694056	-0.4676673	-0.6363118	0.0041034	-0.0365596	-0.7719464	-0.2148354	-0.0187063	-0.0380113	0.3733759	-0.2021143	0.0228016	0.0104206	0.1047808	-0.204104	0.0149518	-0.0017679	0.062293	0.1527404	-0.0071762	0.0095019	0.0295825	0.0283793	-0.000807	0.0033324	-0.0202739	0.0294577	-0.0030212	-0.0003281
	6	14	2527.573	0.032902	0.0052556	1	0.0333191	9.075546	0.032902	0.0052556	0.0333191	9.075546	-0.0645766	3.441621	12	0.3260146	0.0108624	-327.5556	0.0928716	0.1099983	-6.237382	-28.8407	-0.054919	-0.981619	0.95328	0.1893248	0.0290391	0.0178747	0.5804569	2.173085	-0.0222151	0.0824437	0.5895081	-0.5014739	0.0324299	-0.0019512	0.6823065	0.4065685	0.010649	0.0357137	0.0473996	-0.4292229	0.0178931	-0.0130379	0.2296737	-0.0368152	0.0096047	0.008738	-0.111517	-0.1379858	0.0029867	-0.0104631	0.0313727	-0.0317988	0.0029514	0.0006256	-0.0411754	0.020701	-0.0028756	-0.0018001
	7	16	1976.103	0.0330539	0.0035898	1	0.0332482	6.198272	0.0330539	0.0035898	0.0332482	6.198272	-0.0634931	3.441614	12	0.3228233	0.0107332	-327.5556	0.0881365	0.0983452	-22.33967	18.83262	-0.8054621	0.5431101	-0.6850331	0.5422969	-0.0273954	0.0115058	0.110868	2.090148	-0.0270598	0.0700041	-0.6372002	-0.404347	-0.0132068	-0.0261033	-0.7549239	0.2133316	-0.0307789	-0.0115101	0.1588792	-0.4171221	0.0177567	-0.009605	-0.0985261	-0.2190122	0.0042288	-0.0108745	0.1963692	0.0264324	0.0059204	0.0086799	0.0428432	-0.0252938	0.0027657	0.0010001	0.0305669	0.0539244	-0.0015607	0.0033369
	8	18	1577.524	0.0332447	0.0023245	1	0.0333259	3.999697	0.0332447	0.0023245	0.0333259	3.999697	-0.0622203	3.441615	12	0.3155063	0.0105145	-327.5556	0.0830488	0.0887303	-27.9036	6.070845	-0.9416447	0.1377232	-0.7129347	-0.3257136	-0.0211508	-0.0155578	-1.894133	0.119355	-0.0631296	-0.0180736	0.6209694	-0.3738498	0.0264087	-0.0026877	0.4538779	-0.5992103	0.0269048	-0.0110786	-0.0838345	0.4461123	-0.0133626	0.0129249	0.0305746	0.2378648	-0.0056443	0.0088967	-0.1338656	-0.1668713	0.0006812	-0.0099111	-0.0377566	-0.0343488	-0.0001297	-0.0026423	0.0719063	-0.0217913	0.003377	0.0019929
	9	21	1265.625	0.0334836	0.0012871	1	0.0335083	2.201328	0.0334836	0.0012871	0.0335083	2.201328	-0.0614937	3.441603	12	0.3111751	0.0104269	-327.5556	0.0762276	0.0788634	-1.200624	28.13875	-0.0758068	0.9406872	0.3202121	0.5728794	0.0076411	0.0205399	1.220371	-1.160762	0.0500855	-0.0268884	0.5845102	0.3829937	0.0145155	0.0197546	0.3147752	-0.6450389	0.0205972	-0.0164913	0.4467572	0.1140783	0.0126706	0.0123491	0.0390553	-0.2418027	0.0066504	-0.007233	0.2320154	-0.0266171	0.0084556	0.0050318	-0.0038513	-0.0553864	0.0013959	-0.001936	0.0685995	-0.0579838	0.0042615	0.0001676
	10	23	998.264	0.0337826	0.0003416	1	0.0337843	0.5794024	0.0337826	0.0003416	0.0337843	0.5794024	-0.0592391	3.441664	12	0.3051061	0.0103078	-327.5556	0.0687664	0.0692519	25.04722	-11.62874	0.8499339	-0.3847266	-0.5136834	-0.0908046	-0.0168242	-0.0047965	1.283555	-0.712088	0.0466604	-0.0147257	0.236681	-0.572052	0.0130804	-0.0166366	0.16542	0.6555542	-0.0024912	0.0235178	0.3587894	0.2695228	0.0079346	0.0140988	-0.2472258	-0.0147773	-0.0079139	-0.0048859	-0.1924963	0.155704	-0.0095	0.0013905	0.0247449	-0.0572513	0.0023367	-0.0014706	-0.0596045	-0.0873474	7.635355E-005	-0.0043559
	11	24	796.875	0.0341103	-0.0004251	1	0.034113	-0.7139307	0.0341103	-0.0004251	0.034113	-0.7139307	-0.0601344	3.441588	12	0.299451	0.0102152	-327.5556	0.0611649	0.0604794	-7.140957	-26.14557	-0.2550569	-0.8886934	0.3748482	0.2386177	0.0121069	0.0088375	-0.1314047	1.231361	-0.0105062	0.0397801	0.5183094	-0.2120722	0.0184395	-0.0033454	0.4589552	0.3994663	0.0115638	0.0174639	0.0905849	-0.4305273	0.0076851	-0.0131469	0.2293973	-0.0501059	0.0082486	0.0014484	-0.1779886	-0.1860949	-0.0028858	-0.0090375	0.0247555	-0.0562011	0.0017561	-0.0012617	-0.1157263	0.0348333	-0.0045861	-0.0012558
	12	26	627.7902	0.0345084	-0.0011238	1	0.0345267	-1.865293	0.0345084	-0.0011238	0.0345267	-1.865293	-0.058991	3.4416	12	0.2945789	0.0101708	-327.5556	0.0531046	0.05153	-0.9260803	26.64615	-0.0017149	0.920557	0.1189318	0.340915	0.0035942	0.0116026	0.92036	-0.4518512	0.0319726	-0.0118024	0.2829844	0.3868827	0.0074687	0.0142377	0.3856954	-0.3776725	0.0154033	-0.0096905	0.3341184	0.2263781	0.0088998	0.010277	0.102586	-0.2015143	0.0054398	-0.0053947	0.2506929	0.0627337	0.0075643	0.0049069	0.0080755	-0.0626111	0.0010698	-0.0019001	0.1286883	-0.0253479	0.0045573	0.0010619
	13	28	505.5147	0.0349131	-0.0016795	1	0.0349534	-2.75405	0.0349131	-0.0016795	0.0349534	-2.75405	-0.058684	3.441584	12	0.2893152	0.0101126	-327.5556	0.0461652	0.0443282	15.08571	-21.40371	0.4905407	-0.7727325	-0.2281408	0.1914379	-0.0079017	0.0063927	-0.1722882	-0.8336632	-0.0037107	-0.0282214	-0.4016724	-0.0920964	-0.01294	-0.0047438	0.290371	-0.3642565	0.0114977	-0.0104222	-0.1757242	-0.3235939	-0.0036435	-0.011871	0.2036222	-0.0071098	0.0067501	0.0014093	0.0835077	-0.2348249	0.0049343	-0.0069568	0.040247	0.0425231	0.0008193	0.0018275	0.1203842	-0.063585	0.0047884	-0.000668
	14	30	397.9953	0.03541	-0.0022066	1	0.0354787	-3.565773	0.03541	-0.0022066	0.0354787	-3.565773	-0.0571435	3.441622	12	0.284311	0.010087	-327.5556	0.0391089	0.0370074	-25.73164	0.2534405	-0.9105857	0.0659392	-0.0735072	-0.2244942	-0.0026243	-0.0075269	-0.277941	-0.6321529	-0.0085037	-0.0216215	0.1873639	0.2806375	0.0056602	0.009762	0.267563	0.2951607	0.0079563	0.0106528	-0.2546171	-0.1869168	-0.0076375	-0.007413	-0.1648019	-0.0812076	-0.0048144	-0.0036621	0.2223748	0.0575207	0.0067472	0.0034349	0.0562138	0.008233	0.0019188	0.0008681	-0.1317125	0.0266425	-0.0047143	-0.0004723
	15	32	315.5048	0.0359392	-0.0026558	1	0.0360371	-4.226259	0.0359392	-0.0026558	0.0360371	-4.226259	-0.0574494	3.441586	12	0.2789743	0.0100534	-327.5556	0.0326412	0.0303909	12.96425	21.66759	0.5235887	0.7441998	0.187328	0.0472381	0.0065632	0.0014133	-0.1876315	-0.5156122	-0.0060407	-0.0174677	0.1413105	-0.2421544	0.0051776	-0.0078158	-0.3238772	0.0406545	-0.0109061	0.0005038	-0.1996607	-0.1823016	-0.0060242	-0.0066748	-0.0081452	0.1524505	-0.0009992	0.0050108	-0.1620783	0.1238848	-0.0059264	0.0031583	0.0459727	0.011889	0.0014458	0.0007703	0.0647868	0.1061552	0.0013056	0.0038097
	16	34	252.4038	0.0365016	-0.0030129	1	0.0366257	-4.718522	0.0365016	-0.0030129	0.0366257	-4.718522	-0.0564698	3.441611	12	0.2740206	0.0100362	-327.5556	0.0271654	0.0250873	-14.91801	19.81333	-0.4847368	0.7682265	-0.1325733	0.0762382	-0.0045133	0.0028584	-0.0605337	0.4347439	-0.0020249	0.0147343	-0.1823109	-0.1355521	-0.0061547	-0.0046773	-0.2497663	0.1010886	-0.0085054	0.0029869	0.0247621	-0.2257472	0.0013584	-0.0074241	-0.1047217	-0.0790768	-0.0034342	-0.0029631	0.1592633	-0.0733498	0.0055742	-0.001825	0.0010846	-0.0397339	0.0003762	-0.0012909	0.0983926	0.0534878	0.0030053	0.0024046
	17	36	198.6229	0.0371516	-0.0033422	1	0.0373017	-5.140565	0.0371516	-0.0033422	0.0373017	-5.140565	-0.0562448	3.441588	12	0.2685005	0.0100155	-327.5556	0.0221655	0.0202329	-14.61945	-19.41272	-0.6080867	-0.6722911	0.1220256	0.0089789	0.0044541	5.102158E-005	0.1777863	0.2969366	0.0065391	0.0100601	0.050264	-0.1760921	0.001562	-0.0060158	0.193361	-0.0913107	0.0065147	-0.0029027	-0.173038	-0.0614582	-0.0056744	-0.0022755	-0.0419252	-0.0940056	-0.0013097	-0.0030189	-0.0544258	0.137069	-0.0020931	0.0043762	-0.0282245	0.0111298	-0.0010371	2.741814E-005	0.0881398	0.0373238	0.0027938	0.0015738
	18	37	158.3615	0.037797	-0.0035912	1	0.0379672	-5.42758	0.037797	-0.0035912	0.0379672	-5.42758	-0.0558855	3.441583	12	0.26366	0.0100104	-327.5556	0.0180749	0.0165014	21.19062	10.97442	0.8403797	0.3386312	0.0674684	-0.0725913	0.0024164	-0.0027555	-0.2636172	0.0683888	-0.0091431	0.0027518	-0.1470221	-0.0181652	-0.0050849	-0.0005865	0.1465066	0.0875078	0.0050379	0.0029764	0.0924986	0.1162973	0.0031246	0.0039537	-0.0218235	-0.0803297	-0.0005556	-0.0027514	0.0088696	-0.1218326	0.0006208	-0.004132	-0.0110425	0.0222541	-0.0003963	0.0006921	-0.0578008	0.0556879	-0.0020838	0.0016673
	19	39	125.558	0.038502	-0.0037765	1	0.0386868	-5.602025	0.038502	-0.0037765	0.0386868	-5.602025	-0.0549878	3.441597	12	0.2584995	0.0100005	-327.5556	0.0145875	0.0132235	22.75348	-5.448413	0.8554587	-0.2957589	-0.0494689	-0.0629476	-0.0020273	-0.002105	0.1507094	0.15033	0.0057027	0.0051428	0.1044512	0.0525304	0.0037978	0.0016352	-0.1331492	-0.0251098	-0.0044572	-0.0007486	-0.1186246	0.0156004	-0.0039985	0.0006723	0.0585256	-0.0276201	0.0020382	-0.0009224	0.0698551	-0.0690224	0.0024476	-0.002342	-0.0094223	0.0188953	-0.0003791	0.0007153	-0.0070233	0.0639748	-0.000337	0.0021298
	20	41	100.4464	0.0392083	-0.0038912	1	0.0394009	-5.667661	0.0392083	-0.0038912	0.0394009	-5.667661	-0.0542684	3.441612	12	0.253747	0.0099979	-327.5556	0.0118105	0.0107279	11.17292	20.06561	0.5161884	0.7432367	0.0597193	0.019659	0.0021727	0.0005535	0.0015382	-0.1703619	-9.107591E-005	-0.0063092	0.0770682	-0.0498378	0.0026114	-0.00194	-0.0976496	-0.048313	-0.0034935	-0.0014203	-0.0125623	-0.0931738	-0.0003741	-0.0032392	-0.0383822	0.034194	-0.0014831	0.0011871	-0.075616	-0.0205854	-0.0025805	-0.0008147	0.0041053	0.0146256	-6.258489E-006	0.0004575	-0.0298515	0.0394739	-0.0012061	0.001169
	21	43	79.00281	0.0399884	-0.0039257	1	0.0401807	-5.606811	0.0399884	-0.0039257	0.0401807	-5.606811	-0.0538762	3.441613	12	0.2486453	0.0099907	-327.5556	0.009327	0.0083972	-4.822905	21.98195	-0.1065295	0.8979613	-0.0100559	0.048656	-0.0002654	0.0018778	0.1038262	0.0771556	0.0040209	0.0025299	-0.0520394	0.0515535	-0.0017385	0.0020185	0.0474562	0.0706899	0.0016954	0.0024905	-0.0662545	0.0312244	-0.0022063	0.0013034	0.0102739	0.0359754	0.0003804	0.0013323	-0.0606685	0.0077867	-0.0021033	0.0003314	-0.0014723	0.0090274	-4.196168E-005	0.0003347	-0.0400129	-0.0072291	-0.0014628	-0.000212
	22	45	63.3446	0.0407053	-0.0038923	1	0.040891	-5.462029	0.0407053	-0.0038923	0.040891	-5.462029	-0.0527028	3.441642	12	0.2442841	0.009989	-327.5556	0.0075982	0.0066852	-20.64044	-7.926369	-0.8710354	-0.2422793	0.0168896	-0.0348665	0.0006509	-0.0013744	0.0913269	-0.0473535	0.003372	-0.0016823	-0.0583844	0.0087311	-0.0020308	0.0005164	-0.0689437	-0.0114032	-0.0024354	-0.0003867	0.0479673	0.030138	0.0020168	0.0009568	0.0205587	0.0239601	0.0006387	0.0008268	-0.0175834	-0.0460857	-0.0006925	-0.0013635	-0.0006502	-0.0101354	1.949072E-005	-0.0002644	-0.0054748	0.0316065	-0.0002127	0.001009
	23	47	49.86702	0.0414432	-0.003738	1	0.0416115	-5.153942	0.0414432	-0.003738	0.0416115	-5.153942	-0.0535425	3.441581	12	0.2394985	0.0099664	-327.5556	0.0058527	0.0051995	21.3323	-3.849988	0.8697193	-0.239364	-0.021025	-0.0246982	-0.0008209	-0.0009269	0.0379044	0.0684998	0.0016859	0.0024493	0.0307734	0.0334702	0.0012224	0.0011532	-0.0420485	-0.0263502	-0.0015996	-0.000845	-0.0385391	-0.0206496	-0.0014637	-0.0006313	0.0219028	0.0043321	0.0007759	0.000114	0.0362843	-0.0014911	0.0012587	-0.0001042	-0.0052333	0.0015433	-0.0001779	5.793571E-005	-0.0219075	0.0120848	-0.0007506	0.000422
	24	49	39.72458	0.0421036	-0.0035241	1	0.0422508	-4.784561	0.0421036	-0.0035241	0.0422508	-4.784561	-0.0527711	3.441597	12	0.2351905	0.0099373	-327.5556	0.0045771	0.0040918	-5.204927	-20.64088	-0.2919381	-0.8507265	0.0206632	0.0172039	0.000778	0.0006302	-0.0446401	0.0389117	-0.0016463	0.0016179	0.028644	0.0169866	0.001179	0.0005788	-0.007946	0.0348673	-0.0001965	0.0012959	0.0369914	0.0040643	0.0013957	4.702806E-005	0.0034479	0.0168782	0.0001261	0.0005572	0.0246661	-0.0132773	0.0008423	-0.0005361	0.001895	0.0035454	2.002716E-005	0.000116	0.0087226	-0.0178016	0.000272	-0.0006402
	25	51	31.6723	0.0426956	-0.0032484	1	0.042819	-4.350898	0.0426956	-0.0032484	0.042819	-4.350898	-0.0519029	3.441624	12	0.2300105	0.009849	-327.5556	0.0036648	0.0033083	20.56588	-3.231238	0.8675876	-0.2048045	-0.0152978	-0.0158511	-0.0005996	-0.0006103	0.0194168	0.0438865	0.0009282	0.0016856	0.0134171	0.023526	0.0006099	0.0008227	-0.0193883	-0.0163919	-0.0008221	-0.0006297	-0.0228698	-0.0184075	-0.0008621	-0.0006121	0.0109819	0.0057185	0.000371	0.0001664	0.0210909	0.0055345	0.0007763	0.0001177	-0.0035499	-0.0004655	-0.0001523	3.051758E-005	-0.0122768	0.0003434	-0.0004635	5.316734E-005
	26	53	24.93351	0.0432313	-0.0029258	1	0.0433302	-3.871773	0.0432313	-0.0029258	0.0433302	-3.871773	-0.0519562	3.441603	12	0.2224047	0.009637	-327.5556	0.0027765	0.002492	-10.03107	-17.45238	-0.4847468	-0.7251348	0.019944	-0.0042419	0.0007136	-0.0001191	-3.588201E-005	0.0328662	7.081032E-005	0.001314	0.018405	-0.0116314	0.0007322	-0.0005053	0.0152156	0.0077873	0.0006049	0.0002539	0.0017678	-0.0209835	-1.358986E-005	-0.0008233	0.0080101	-0.0058428	0.0002723	-0.000209	-0.01351	-0.0086798	-0.0005517	-0.0002583	0.0008379	-0.0013306	3.266335E-005	-4.35114E-005	-0.0068825	0.00348	-0.0002604	0.0001006
	27	55	19.86229	0.0436506	-0.0026102	1	0.0437286	-3.422106	0.0436506	-0.0026102	0.0437286	-3.422106	-0.0515703	3.441622	12	0.2467822	0.0107915	-327.5556	0.0023131	0.00206	1.139914	-22.30707	-0.0084918	-0.9767	0.0114205	0.0140497	0.0004597	0.0004942	-0.0264485	-0.0043353	-0.001219	-0.0001081	-0.0043432	0.0190666	-6.961824E-005	0.0006593	-0.0199223	-0.0047133	-0.0006864	-0.0001308	-0.0050081	0.0188087	-0.0001185	0.0007571	-0.0073878	0.0009442	-0.0003006	2.861023E-005	-0.0080463	0.0138477	-0.0002549	0.0005178	-0.0015131	-0.0017001	-0.0000994	-5.805493E-005	-0.0061181	0.0093963	-0.0001636	0.0003403
	28	56	15.83615	0.0439969	-0.0022869	1	0.0440563	-2.975547	0.0439969	-0.0022869	0.0440563	-2.975547	-0.050524	3.441657	12	0.2272291	0.0100109	-327.5556	0.0017832	0.0014403	1.030034	-20.54063	-0.0016742	-0.9060835	0.0076585	0.0028955	0.0003991	9.143353E-005	-0.0228717	-0.012451	-0.0007839	-0.0004328	-0.0026148	0.011866	4.816055E-005	0.0003533	-0.0130637	-0.0032174	-0.0005362	-0.0001906	-0.0029288	0.0115125	-0.0001194	0.0004181	-0.0040737	-2.383441E-005	-0.0001259	-4.661084E-005	-0.0065261	0.0058593	-1.931191E-005	0.0002395	0.0003792	-0.003645	4.053116E-005	-4.899503E-005	-0.0012647	0.0046397	-4.243852E-005	0.0001093
	29	58	12.40079	0.0442891	-0.0019725	1	0.044333	-2.550054	0.0442891	-0.0019725	0.044333	-2.550054	-0.049664	3.441685	12	0.2253569	0.0099908	-327.5556	0.0015647	0.0013982	0.982488	-20.3733	0.0033145	-0.904256	0.0110705	0.0103311	0.0003641	0.000421	-0.017736	-0.0016547	-0.0007052	7.331371E-006	-0.0042939	0.0097234	-6.175042E-005	0.0003952	-0.011699	-0.0022409	-0.0004556	-4.804135E-005	-0.0040815	0.0098636	-0.0001097	0.0004546	-0.0041459	-0.0010822	-0.0001385	-0.0001053	-0.0035535	0.0072165	-0.0001419	0.0003248	-0.0008676	-0.0019957	-7.152558E-005	-0.0001507	-0.0008065	0.0038357	-0.0001214	6.520748E-005
	30	60	9.93114	0.0444883	-0.0017134	1	0.0445212	-2.205546	0.0444883	-0.0017134	0.0445212	-2.205546	-0.049723	3.441671	12	0.2246621	0.0100023	-327.5556	0.0011999	0.0010735	0.9400134	-20.31235	0.0070062	-0.9052739	0.0107874	0.0057718	0.0004063	0.0001723	-0.0147063	-0.0040912	-0.0006328	-0.0001847	-0.0010879	0.0064884	-7.796289E-005	0.0002345	-0.0074441	-0.002217	-0.0003324	-0.0001159	-0.0026995	0.0061958	-0.0001016	0.0002204	-0.0038742	-0.0018317	-0.000114	-9.393693E-005	-0.0023227	0.0049707	-8.893014E-005	0.0001601	0.000445	-0.0014851	-5.24521E-006	2.491474E-005	-0.0019897	0.0029181	-5.650521E-005	0.0001109
	31	62	7.944915	0.0446688	-0.0014764	1	0.0446932	-1.893056	0.0446688	-0.0014764	0.0446932	-1.893056	-0.0496781	3.441662	12	0.2239119	0.0100074	-327.5556	0.0009049	0.0008435	0.8996711	-20.24621	0.0102873	-0.9057046	0.0108125	0.0017394	0.0003812	5.960464E-008	-0.0101468	-0.0037969	-0.0004351	-0.0001777	-0.0012918	0.0034802	-0.0001123	0.0001459	-0.0055861	-0.0039887	-0.0002308	-0.0001728	0.0003371	0.0042373	2.384186E-005	0.0001982	-0.0013433	-0.0019055	-0.0001004	-0.0001535	-0.0014552	0.0021376	-9.775163E-006	0.0001274	0.000363	-0.0021798	-1.716614E-005	-0.0000972	-0.0010386	0.0014006	-2.646446E-005	-1.513958E-005
	32	64	6.317385	0.0447894	-0.001277	1	0.0448076	-1.633107	0.0447831	-0.0012769	0.0448013	-1.633229	-0.0496595	3.441646	12	0.2229665	0.0099906	-327.5556	0.0007981	0.0006723	0.8505346	-20.1627	0.0123408	-0.904162	0.0090989	0.0031486	0.0002983	7.599592E-005	-0.0088771	-0.0015122	-0.0003841	-6.365777E-005	-0.0004723	0.0042123	-2.169609E-005	0.0001521	-0.0052184	-0.0015622	-0.0001826	-8.988381E-005	-0.0018017	0.0041174	-1.645088E-005	0.0001758	-0.00165	-0.0004667	-8.726121E-005	-7.414819E-005	-0.0013329	0.0027133	-7.152558E-006	0.000095	-0.0009343	-7.272513E-005	-5.24521E-005	-1.549721E-005	-0.0017492	0.0013253	-4.196168E-005	8.702278E-006
	33	66	5.008013	0.0448992	-0.0011058	1	0.0449128	-1.410833	0.0448936	-0.0011051	0.0449072	-1.410146	-0.0484502	3.441688	12	0.2226807	0.0100012	-327.5556	0.0007971	0.0006652	0.81821	-20.13815	0.0144627	-0.9050911	0.0093005	0.0058097	0.0002983	0.0002104	-0.0069293	0.002045	-0.0002661	-5.185605E-006	-0.000321	0.0041539	-1.549721E-005	0.0001924	-0.0052477	0.001486	-0.0002077	-2.747774E-005	-0.0015711	0.0045429	-5.578996E-005	0.0002074	-0.0016376	-0.0014438	-3.83854E-005	-0.0001001	-0.0003528	0.0023314	-2.241135E-005	0.00012	-0.0004609	-0.0009692	-3.123283E-005	-5.614759E-005	-0.0009011	0.00178	-2.646446E-005	9.536743E-007
	34	69	3.945707	0.0449845	-0.0009703	1	0.044995	-1.235617	0.0449771	-0.0009687	0.0449875	-1.233804	-0.0480024	3.441696	12	0.2224275	0.0100081	-327.5556	0.0006252	0.0004576	0.781881	-20.11665	0.0156498	-0.9056971	0.0079953	0.0032356	0.0001833	3.638864E-005	-0.0068654	-0.0015808	-0.0002913	-0.0001132	-0.0004748	0.0030896	1.525879E-005	0.000106	-0.0029338	-0.0006864	-0.0000987	-5.811454E-005	-0.0012955	0.0022112	-1.645088E-005	5.978346E-005	-0.0015753	-0.0004997	-4.649163E-005	-1.311302E-005	-5.195663E-005	0.0020337	-2.908707E-005	6.28233E-005	-0.0008898	-0.0005269	-4.982949E-005	-1.40667E-005	0.0003407	0.0009595	2.145767E-006	3.063679E-005
	35	72	3.158693	0.0450512	-0.0008688	1	0.0450596	-1.104802	0.0450482	-0.0008705	0.0450566	-1.106989	-0.0481962	3.441669	12	0.2218336	0.0099957	-327.5556	0.0007527	0.0005953	0.7867658	-20.06267	0.0180109	-0.9045316	0.0108505	0.0055312	0.0003908	0.0001207	-0.0046898	0.003412	-0.0002255	8.47578E-005	0.0003569	0.0036771	3.528595E-005	0.0001251	-0.0029721	0.0014007	-0.0001099	2.491474E-005	-0.0007277	0.0028848	-6.91414E-006	0.0001397	-0.0012124	0.0005962	-5.316735E-005	1.955032E-005	-0.0008637	0.0027496	-1.144409E-005	0.0001003	-0.0005575	0.0006806	-2.932549E-005	2.503395E-005	-0.000941	0.0011484	-2.598763E-005	3.33786E-006
	36	76	2.504006	0.0451122	-0.0007904	1	0.0451191	-1.003736	0.0451094	-0.0007921	0.0451163	-1.006026	-0.0472651	3.441688	12	0.2213568	0.0099874	-327.5556	0.000559	0.0003771	0.7621189	-20.02043	0.0185544	-0.9037675	0.0091433	0.0037993	0.0002606	7.820129E-005	-0.0030367	0.0009181	-0.0000961	-3.361703E-005	-0.0003911	0.0022905	-3.027916E-005	5.418062E-005	-0.0023982	-0.0005644	-8.58307E-005	-0.0000992	-0.0004379	0.001316	5.00679E-006	5.680323E-005	-0.0007091	-0.0008421	-2.622604E-005	-5.340577E-005	-0.0006742	0.0011673	-3.099442E-006	4.780293E-005	-0.0005949	-0.0004385	-2.813339E-005	-1.907349E-005	-0.0003067	0.0005118	-1.931191E-005	-1.084805E-005
	37	80	1.998082	0.0451647	-0.0007429	1	0.0451708	-0.9423854	0.0451579	-0.0007439	0.0451641	-0.943823	-0.0469548	3.44169	12	0.2214476	0.010003	-327.5556	0.0006783	0.000626	0.7280154	-20.02992	0.0179977	-0.9051858	0.002331	0.0121803	-1.931191E-005	0.0005269	-0.0034219	0.0016999	-0.0001459	-9.894372E-006	-0.0006958	0.0022836	-5.388261E-005	1.603365E-005	-0.0017741	0.0007779	-8.893014E-005	-3.385545E-005	-0.0002045	0.001916	0	6.020069E-005	0.0002449	-0.0004764	-1.645088E-005	-6.091596E-005	-0.0004133	0.0014445	-1.430512E-006	4.208088E-005	-0.0001911	0.0003725	1.907349E-006	9.536743E-006	-0.0004563	0.0006007	-6.675721E-006	-8.58307E-006
	38	84	1.584686	0.0452263	-0.0007196	1	0.045232	-0.9115899	0.0452159	-0.00072	0.0452216	-0.9122652	-0.0470519	3.441669	12	0.2217998	0.0100324	-327.5556	0.0006761	0.000677	0.741918	-20.06131	0.0191159	-0.9078322	0.0115665	-0.001384	0.0004325	-0.0002434	-0.0007336	0.0001111	-2.0504E-005	-8.082391E-005	0.006236	-0.0022819	0.0002859	-0.0001381	-8.767099E-005	-0.0010853	-1.883507E-005	-0.0001349	-0.0001762	0.0009172	7.390976E-006	3.397465E-006	-0.0008113	-0.0001765	-1.907349E-005	-4.005433E-005	0.0003216	-4.451909E-005	1.478195E-005	-2.229214E-005	-5.480276E-005	-0.0007798	-2.384186E-006	-4.518033E-005	-0.000547	0.0003444	4.768372E-007	-2.276898E-005
	39	89	1.266892	0.0452667	-0.0007088	1	0.0452723	-0.8971067	0.0452577	-0.0007098	0.0452633	-0.8984942	-0.0465706	3.441669	12	0.2203353	0.0099751	-327.5556	0.0009697	0.0009568	0.770903	-19.92757	0.0207698	-0.9026019	0.0089087	-0.0062338	0.0002348	-0.0004121	0.0141561	-0.0049568	0.0006266	-0.0003239	0.0014856	0.0028445	6.508827E-005	3.540516E-005	-0.0026145	0.0008234	-0.0001037	-1.674891E-005	-0.0020462	0.0023426	-3.004074E-005	5.656481E-005	-0.0002169	-3.469736E-005	2.789497E-005	-1.549721E-005	0.000201	0.0008288	6.67572E-006	8.106232E-006	-0.0002663	0.0002773	-1.120567E-005	-8.225442E-006	-0.0007326	0.0013612	-4.005433E-005	1.704693E-005
	40	95	0.999041	0.0453393	-0.0007297	1	0.0453451	-0.9219951	0.0453275	-0.0007291	0.0453333	-0.921592	-0.0463358	3.441666	12	0.2204556	0.0099966	-327.5556	0.0012395	0.0012928	0.7681284	-19.93857	0.020277	-0.904561	0.0146566	-0.0079403	0.0004752	-0.0005831	0.006756	-0.0110713	0.000387	-0.0005829	0.0082694	-0.0053933	0.0003324	-0.0002673	-0.0010271	-0.0045691	1.311302E-005	-0.000305	-0.0001841	-0.0014613	-1.907349E-006	-6.246568E-005	-0.0010072	0.0049579	-1.66893E-006	0.000124	0.0002665	0.0028925	-9.298326E-006	0.0000968	0.000627	0.0025823	3.552437E-005	7.522106E-005	0.0009695	0.0014084	3.886223E-005	2.229214E-005
	41	100	0.7923428	0.0453881	-0.000765	1	0.0453946	-0.965662	0.0453749	-0.0007664	0.0453814	-0.967693	-0.0455608	3.441674	12	0.22019	0.0099954	-327.5556	0.00191	0.0017603	0.8013983	-19.91321	0.0211387	-0.9044366	0.0184348	0.0282675	0.0006938	0.0011066	0.0066876	-0.0010469	0.0003469	-0.0001662	-0.0058262	0.0007204	-0.000294	-4.953147E-005	0.0074747	-0.0123235	0.0003433	-0.000649	-0.0005352	-0.0008311	2.622604E-006	-7.760526E-005	-0.001898	-0.003119	-6.580354E-005	-0.0001793	0.0008819	0.0014174	5.602837E-005	2.43187E-005	0.0019053	-0.0002294	7.343292E-005	-4.279614E-005	5.061924E-005	0.0011378	1.883507E-005	-1.251698E-005
	42	108	0.6334459	0.0454521	-0.0008199	1	0.0454595	-1.033442	0.0454349	-0.0008189	0.0454423	-1.032549	-0.0450844	3.441675	12	0.2198916	0.0099962	-327.5556	0.0022695	0.0022546	0.830021	-19.885	0.0214217	-0.9044956	0.0260366	-0.0148949	0.0010018	-0.0009184	-0.005747	0.005607	-0.0002022	0.0001231	-0.0193952	0.0019627	-0.0008874	9.775162E-006	0.0229557	-0.0056875	0.0010557	-0.0003569	-0.005253	0.0061706	-0.0002139	0.0002041	-2.371892E-005	-0.0063425	-1.859665E-005	-0.0002922	-0.003538	0.0026418	-0.0001445	6.997585E-005	0.0030901	0.0001543	0.0001583	-2.229214E-005	-0.0012467	0.0002796	-2.646446E-005	-5.745889E-005
	43	116	0.5040323	0.0455206	-0.0009016	1	0.0455296	-1.134614	0.0455029	-0.0009006	0.0455118	-1.133844	-0.0443538	3.44168	12	0.2200372	0.0100182	-327.5556	0.0022433	0.0020694	0.857915	-19.89701	0.0211141	-0.9064981	0.0194949	-0.009337	0.0007441	-0.0006241	-0.0078997	0.0210302	-0.0003121	0.0007988	0.0058584	0.0184998	0.0002913	0.0007191	-0.0183091	0.0098568	-0.0008097	0.0003037	0.006705	-4.13498E-005	0.0003688	-5.060435E-005	-0.007488	0.0019138	-0.0003304	-1.430512E-006	-0.002832	0.0049791	-0.0001471	0.0001887	-0.0042909	0.0019654	-0.0002258	5.602837E-005	-0.0074447	-8.530916E-007	-0.0003643	-2.276898E-005
	44	125	0.400641	0.0456094	-0.0009965	1	0.0456203	-1.251579	0.0455934	-0.000994	0.0456043	-1.248897	-0.0436007	3.441679	12	0.219147	0.0099976	-327.5556	0.0016418	0.0016287	0.9151531	-19.8138	0.0219955	-0.9046079	-0.0139149	0.002677	-0.0007739	-0.0000968	0.0116578	0.0046152	0.000561	2.640486E-005	0.0092344	0.0020603	0.0003974	-4.285575E-005	0.0183187	0.0090157	0.0007977	0.0002472	0.0026952	-0.0071884	0.0001225	-0.0003327	-0.0028258	0.0021676	-8.225442E-005	1.80006E-005	0.0001968	0.0017097	4.792213E-005	3.421307E-005	-0.0009635	-0.0080358	-5.960465E-005	-0.000361	0.0074513	-0.0007211	0.0003347	-9.441377E-005
	45	139	0.316723	0.0457208	-0.0011191	1	0.0457345	-1.402162	0.045704	-0.001118	0.0457177	-1.401287	-0.0425781	3.441676	12	0.2186687	0.0100007	-327.5556	0.0016376	0.0016268	0.950303	-19.7688	0.0213246	-0.9049099	-0.0115185	0.0156198	-0.0006447	0.0004398	0.0057637	-0.010399	0.0003002	-0.0006083	0.0095037	0.0051263	0.0003741	0.0001413	-0.0105653	-0.0104944	-0.0004463	-0.0005759	0.0007435	-0.0057807	5.76973E-005	-0.0003227	-0.0024194	0.0098423	-8.511544E-005	0.000402	0.0019254	-0.0050842	0.0001113	-0.0002646	0.0032913	-0.0027981	0.0001438	-0.0001302	0.0011508	0.0027932	8.845329E-005	6.461143E-005
	46	157	0.2520161	0.0458426	-0.0012575	1	0.0458598	-1.57122	0.0458191	-0.0012593	0.0458364	-1.57431	-0.0417022	3.441681	12	0.2180119	0.009998	-327.5556	0.0018636	0.0018881	-0.3476086	-19.72912	-0.0423467	-0.90392	0.0062208	0.0080655	0.0001485	0.0000993	0.0096068	-0.0128761	0.0004289	-0.0008426	-0.0132724	0.0002377	-0.0006087	-0.0001088	0.0030241	1.99303E-007	0.0001411	-0.0001186	-0.0118107	-0.0073531	-0.0004859	-0.0003715	0.0077359	-0.0051839	0.0003707	-0.0003428	-0.0145552	0.0042919	-0.0006363	0.0001647	0.0016256	0.0108223	0.000123	0.0004437	-0.0116486	0.0062457	-0.000519	0.0001854
	47	175	0.2003205	0.0459584	-0.0014221	1	0.0459804	-1.772398	0.0459294	-0.0014223	0.0459514	-1.773723	-0.0410621	3.441669	12	0.2173496	0.0099938	-327.5556	0.0016133	0.0015422	0.0001886	-19.67224	-0.0292413	-0.9040634	0.008998	0.0133411	0.0003395	0.0002566	-0.0044373	-0.0059476	-0.0001583	-0.0004947	0.0112461	-0.0025822	0.0005081	-0.0002491	0.004286	-0.0084716	0.0002267	-0.0005584	-0.0100192	0.0062043	-0.000402	0.0001931	-0.005941	0.0050861	-0.0002327	0.0001407	-0.0048793	0.0013592	-0.0001876	-7.867814E-006	-0.0103686	0.0099503	-0.0004444	0.0004252	0.0011669	-0.0060336	3.504753E-005	-0.0003523
	48	197	0.1588983	0.046097	-0.0016087	1	0.0461251	-1.998747	0.0460677	-0.0016074	0.0460957	-1.998381	-0.0396411	3.441676	12	0.2169508	0.0100069	-327.5556	0.0018932	0.0015366	0.3119377	-19.63367	-0.0182171	-0.905535	-0.0008373	0.0204787	-9.107591E-005	0.0005048	-0.0097925	0.0141588	-0.0003853	0.0004318	0.0013551	-0.0073587	0.0001059	-0.0004926	-0.0104409	0.0073192	-0.0004282	0.0001908	0.0044685	0.0039844	0.0002313	7.069111E-005	-0.0042377	0.011738	-0.0001512	0.000438	-0.0090111	-0.0069213	-0.0004168	-0.0003817	0.0034945	0.0091512	0.000191	0.0003865	-0.004798	-0.0027115	-0.0002143	-0.0002022
	49	229	0.1260081	0.0462613	-0.0018394	1	0.0462978	-2.276899	0.0462211	-0.0018368	0.0462576	-2.275745	-0.0389319	3.441662	12	0.2159038	0.0099959	-327.5556	0.0012436	0.0009116	0.5615222	-19.53332	-0.0107529	-0.9046591	0.0062189	0.0162469	0.0002403	0.0001186	-0.0024355	-0.0019125	-7.009507E-005	-0.0004545	-0.0005733	0.0079249	2.002716E-005	0.0001568	-0.0019006	0.0048047	-0.0000978	4.130602E-005	0.0038668	0.0086283	0.0002539	0.0002981	0.0009707	0.0051495	6.747246E-005	6.449223E-005	0.0005135	-0.0048749	4.148483E-005	-0.0003457	0.0005273	0.0066948	5.865097E-005	0.0002066	0.0015826	0.0001436	0.0001109	-0.0001378
	50	268	0.1001603	0.0464981	-0.0020932	1	0.0465452	-2.577543	0.0464025	-0.0020866	0.0464494	-2.574722	-0.0395778	3.441666	12	0.2149013	0.0100026	-327.5556	0.0025563	0.0014818	0.8018351	-19.43411	-0.0040326	-0.905324	0.0069193	0.0271336	0.0004246	6.085634E-005	-0.0058885	0.0147858	-0.0001476	-4.571677E-005	-0.0113204	0.0188288	-0.0004189	0.0003789	-0.0077307	0.0095473	-0.0002394	1.960993E-005	-0.0032235	-3.31346E-005	-6.937982E-005	-0.0003223	0.0037624	-0.0002507	0.0002038	-0.0002998	0.0042939	0.0189676	0.0002549	0.0005778	-0.0004486	0.0189331	2.932549E-005	0.0007164	-0.006043	0.0018257	-0.0002129	-0.0001289
	51	306	0.0794492	0.0467192	-0.0024062	1	0.0467811	-2.948322	0.0466081	-0.0023961	0.0466697	-2.942922	-0.0390597	3.441661	12	0.2137996	0.0100018	-327.5556	0.0020629	0.0007386	1.03934	-19.323	0.0015571	-0.9052566	0.0061246	0.0265183	0.0004697	-0.0002382	-0.0037537	0.0164452	2.002716E-005	-6.878377E-005	0.0017834	0.0147704	0.0001862	8.028746E-005	-0.0010303	0.0093035	5.960464E-005	-5.841256E-005	-0.001057	0.0046728	2.598762E-005	-0.0001531	-0.0041566	0.0069017	-0.0001268	-2.753735E-005	0.0016843	0.0089662	0.0001388	0.0000999	0.0010795	0.0075924	0.0001006	9.286404E-005	-0.0038769	0.0037835	-0.0001433	-8.380414E-005
	52	358	0.0631739	0.0468917	-0.002776	1	0.0469738	-3.387918	0.0468305	-0.0027718	0.0469124	-3.387213	-0.0355182	3.441662	12	0.212945	0.0100028	-327.5556	0.0016091	0.000745	1.264145	-19.23208	0.0054889	-0.9053373	0.0022282	0.0246297	0.0003142	0.0001631	-0.0017862	0.0111832	6.747246E-005	5.728006E-005	0.0019652	0.0064055	0.0001645	-2.366305E-005	0.0011904	0.002562	0.0001054	-0.000123	0.0007901	0.0017422	9.083748E-005	-0.000105	-0.0028955	0.0097474	-8.988381E-005	0.0002644	0.0038094	0.0049783	0.0002337	9.10759E-005	0.0024046	-0.0036707	0.0000973	-0.0002609	0.0018699	0.0001719	0.0000954	-0.0001452
	53	408	0.0501337	0.0471473	-0.0032202	1	0.0472572	-3.907333	0.0470937	-0.0032125	0.0472032	-3.902408	-0.0332153	3.441653	12	0.2115509	0.0099973	-327.5556	0.0015526	0.0007904	1.492831	-19.08912	0.0085928	-0.9048118	-0.0040132	0.0203647	0.0001287	2.69413E-005	-0.0034281	0.0112454	6.842613E-005	8.410215E-005	0.0017222	0.0080649	0.0001857	0.0000992	-0.0059357	-0.0005569	-0.0002272	-0.0002441	0.0026558	0.0040374	0.0001674	2.139807E-005	-0.0016264	-0.0024833	-7.367135E-005	-0.0002803	-0.0007005	0.0048372	1.382828E-005	8.285046E-005	-0.0054513	0.0045166	-0.0002465	0.000134	0.0043377	0.0092862	0.000212	0.0002893
	54	490	0.0398258	0.0474749	-0.0037519	1	0.0476229	-4.51864	0.0474205	-0.0037439	0.0475681	-4.51423	-0.0302339	3.441661	12	0.2100361	0.0100025	-327.5556	0.0014735	0.0008152	1.734662	-18.93099	0.0110726	-0.905258	-0.0030472	0.0188645	0.0002732	-0.0001671	-0.0099724	0.010147	-0.0001862	0.0001166	2.228282E-005	0.0092054	0.0001323	0.0001899	0.0019376	0.0055678	0.0001464	2.342463E-005	0.0009505	0.0014061	4.935265E-005	-7.17044E-005	-0.0002841	-0.0034528	-5.24521E-006	-0.0003395	0.0004376	0.0073978	6.41346E-005	0.0001912	0.0013771	0.0011854	7.200241E-005	-7.665158E-005	0.0009902	-0.00485	7.152557E-005	-0.0003722
	55	592	0.0316296	0.0478507	-0.0043825	1	0.0480509	-5.23293	0.047784	-0.0043693	0.0479834	-5.224473	-0.028076	3.441657	12	0.2081032	0.0099995	-327.5556	0.0017784	0.0006547	1.994895	-18.72941	0.0131748	-0.90496	-0.0077033	0.0260635	0.0002799	2.068281E-005	-0.0125093	0.0090702	-0.000236	-9.059907E-006	-0.0008039	0.0049292	0.0001283	-1.507998E-005	-0.0030842	0.0022519	-9.036065E-005	-0.0001274	0.002228	0.0034779	0.0001318	-9.179116E-006	0.0006463	0.003394	5.078316E-005	-4.303456E-005	0.0027699	0.0069345	0.0001755	0.000134	-0.0009654	-0.0035749	-2.670288E-005	-0.0003011	-0.0020755	0.0015412	-7.629396E-005	-8.702279E-005
	56	689	0.0251206	0.0482997	-0.005121	1	0.0485704	-6.052159	0.0482336	-0.0051079	0.0485033	-6.045016	-0.0257588	3.441669	12	0.2059207	0.0100017	-327.5556	0.0021679	0.0007444	2.269443	-18.49913	0.0147204	-0.9051269	-0.0141899	0.0321895	0.0002406	0.0001814	-0.0127538	0.0052947	-0.0001853	-0.0001568	-0.001011	0.0072722	0.0001278	8.46386E-005	-0.0056318	0.0010247	-0.0002329	-0.0001537	-0.001193	0.0030004	-4.053117E-005	-6.484986E-005	0.0009686	0.0002287	5.221367E-005	-0.0002071	0.0034628	0.0035509	0.0001903	-7.629396E-006	0.002617	-0.0002678	0.0001545	-0.0001895	0.0024289	0.0082956	0.0001457	0.0001853
	57	811	0.0199553	0.0488744	-0.0059773	1	0.0492385	-6.97258	0.0487975	-0.0059597	0.04916	-6.963102	-0.0236722	3.44166	12	0.2031228	0.0100015	-327.5556	0.0023825	0.0007703	2.557324	-18.20585	0.0160394	-0.9050873	-0.018196	0.0336258	0.0003066	0.000192	-0.0127608	0.0063748	-5.650521E-005	-0.0001482	-0.0053242	0.0041598	-5.269052E-005	3.343821E-005	-4.827535E-005	0.0008233	3.695488E-005	-0.0001637	-0.0016796	0.0128176	-4.506112E-005	0.0003942	-0.0017656	0.0026343	-6.937982E-005	-7.438661E-005	-0.0035132	0.001172	-0.0001504	-0.0001456	0.002174	-0.0009861	0.0001123	-0.0002241	-0.0029328	0.0013377	-0.0001001	-0.0001169
	58	963	0.0158522	0.0495597	-0.0069622	1	0.0500463	-7.996647	0.0494777	-0.0069397	0.049962	-7.984124	-0.0205404	3.441653	12	0.1998776	0.0100031	-327.5556	0.0023021	0.0005848	2.850554	-17.86487	0.016793	-0.9052249	-0.0208103	0.0323351	0.0004067	0.0001215	-0.010854	0.0066726	6.985664E-005	-8.404256E-006	-0.0019024	0.004809	0.0001535	2.31266E-005	0.000766	0.0048865	8.058548E-005	6.073713E-005	0.0013133	0.0036104	6.890297E-005	-1.937151E-005	-0.0020651	0.0024156	-8.392335E-005	-0.000108	-0.000149	0.0028068	3.457069E-005	-8.511544E-005	0.0001538	0.0027319	3.838539E-005	-7.140637E-005	-0.001138	0.0008857	-2.622604E-005	-0.0001463
	59	1218	0.0125907	0.0503688	-0.0080776	1	0.0510124	-9.110939	0.0502932	-0.008052	0.0509337	-9.095971	-0.0169609	3.441662	12	0.1960831	0.0100027	-327.5556	0.002529	0.0005274	3.14619	-17.46632	0.0173032	-0.9051738	-0.0239903	0.0333484	0.000309	0.0001626	-0.0125295	0.0043648	3.361702E-005	-7.259847E-005	-0.0040514	0.0036148	0.0000963	2.110004E-005	0.0014567	0.0027177	0.0001185	-3.778935E-005	0.0013543	0.0036302	6.628036E-005	1.633167E-005	-0.0032186	0.0029961	-0.0001585	-9.024144E-005	-0.0024508	0.0047017	-8.392335E-005	2.551079E-005	0.0013137	0.0049592	9.036064E-005	3.147125E-005	-0.0035986	0.0031822	-0.0001373	-2.872944E-005
	60	1538	0.0100011	0.051367	-0.0092922	1	0.0522007	-10.2538	0.0512797	-0.0092599	0.0521091	-10.23594	-0.0144532	3.441653	12	0.1916242	0.0100029	-327.5556	0.002713	0.000456	3.424068	-17.00249	0.0178304	-0.9051848	-0.0300595	0.030707	0.000289	4.464388E-005	-0.0147089	0.0031228	-4.243852E-005	-5.8949E-005	-0.006474	0.0016344	-1.239777E-005	-2.896786E-005	-0.0020965	0.0046952	-5.865098E-005	7.969141E-005	0.0005487	0.0059683	3.242493E-005	5.865097E-005	0.0005189	0.0031336	5.483627E-006	-0.0001216	-0.00168	0.0029449	-6.222726E-005	-0.0001076	-0.0002537	0.001995	2.288818E-005	-0.0001217	-0.0023792	0.0018083	-6.294251E-005	-0.0001217
